-1,-1,-1,0,-4,-2,-2,1
1,-1,-26,-8,-1,-1,-3,-1
-2,1,1,-3,-3,-2,-1,-1
-2,-2,-1,-2,-2,-1,0,-1
-1,0,-3,-1,-1,-1,1,0
-1,1,6,1,1,0,0,-1
0,-2,-4,-3,-1,0,-3,0
-3,-2,-5,0,-1,-2,0,-1
-1,-1,1,0,2,1,-1,-2
-2,-2,4,0,-2,-1,0,0
0,-2,-6,-1,-2,-1,-2,-1
-1,1,3,0,-2,0,-2,-1
-1,-1,-2,-1,-2,-1,-1,0
0,0,2,1,1,-2,-2,-1
-1,0,9,-3,0,0,-1,-1
-1,-3,7,4,0,0,-2,-1
0,-4,-17,-6,0,0,-1,-2
-2,-2,8,-2,-2,-3,0,-1
-2,0,-11,1,3,4,0,1
-1,0,-2,-1,-1,-2,-1,0
0,0,6,-4,-4,-2,-1,-3
0,-3,13,6,-1,-2,0,0
-2,-3,-38,-9,-1,-1,-1,-1
-1,-1,-6,-4,0,-2,1,0
-2,-3,-7,-1,1,1,-1,-1
0,-1,4,0,0,-2,-2,0
-2,-1,3,0,-1,-2,-1,-3
0,2,14,2,1,-2,-1,0
-1,-2,-3,1,-1,-1,-2,-1
-1,0,-2,-3,-2,1,-1,-1
-1,0,3,4,5,-1,-1,1
-2,-1,-13,-4,0,-2,-1,0
-1,3,17,3,0,-2,-2,-2
-2,-3,-27,-8,-2,0,-1,-1
-1,0,20,5,-1,-4,-1,-2
-2,1,2,-4,-3,-3,-1,-3
0,-2,7,0,1,0,0,-1
-1,0,-13,-6,-2,-1,0,-2
-1,-2,-8,-4,-4,-2,0,1
-2,0,8,3,1,0,-1,-1
-2,1,15,3,1,1,-2,-2
-1,-2,-9,-3,0,-1,-1,-2
-1,-1,3,-1,-1,1,0,-1
0,-1,-5,0,-2,0,-2,-1
-1,-1,-13,-10,-4,1,0,-1
0,2,6,8,2,0,0,-1
-1,0,1,1,-2,-2,-1,-2
0,-3,5,-1,0,-1,-1,0
-3,-1,-12,-2,2,-2,-2,-1
-2,-2,3,-10,-9,-1,-1,0
-1,-1,2,5,6,0,0,0
-2,-7,-5,1,1,-2,0,0
0,-2,3,-2,-4,-2,0,1
-1,3,9,1,2,1,0,-1
-3,-1,-10,-9,-9,-2,-2,-2
0,-6,-4,1,1,0,0,-2
-1,-7,-3,-1,-2,-2,0,0
-1,-5,-4,9,7,0,-1,0
0,5,22,1,0,0,-1,-1
-2,6,-28,-9,-1,-1,-4,-2
-3,-2,5,5,-2,0,-2,-2
1,-4,2,-2,-2,1,0,-2
1,-2,0,-4,-4,-2,-2,0
2,-4,-5,-1,-5,-2,0,-3
2,4,-14,0,-1,-1,-1,-2
-6,1,-10,-7,-1,-6,-2,-3
-7,-7,-19,12,26,1,1,-3
4,2,36,-9,-12,-1,-1,2
8,-3,6,0,-8,0,3,0
-4,-9,-12,7,8,0,-1,-1
4,28,26,-9,-15,-2,-6,-4
-8,-8,-47,-9,-3,-2,-1,-2
2,40,18,-8,-9,-2,-1,-1
-1,-13,-26,-13,-7,-1,2,-1
-5,-8,-2,-6,0,-3,-4,0
0,25,31,8,-5,0,2,1
-9,-26,-36,-11,-1,-2,-3,-1
1,9,12,7,2,0,-7,-1
-1,3,-5,-5,-6,3,8,1
-1,-14,-11,5,4,-1,0,-2
-3,-12,-5,1,5,-3,-4,-4
1,22,46,2,-3,1,-3,-5
1,-23,-16,-2,-4,-3,-7,3
-8,-3,-8,3,3,-2,8,0
0,5,17,5,3,2,3,5
3,15,-5,-9,-6,-4,2,-2
-6,-15,17,5,0,-2,-1,-5
4,4,-7,-6,2,-2,-16,-1
-10,10,-3,-12,-3,-4,6,-3
3,-7,13,15,-1,3,2,6
7,3,0,-3,-1,2,6,2
-3,-9,-16,-3,1,3,-1,0
1,-1,45,10,2,-4,-8,-3
-6,-21,-35,-6,7,-2,-17,-6
1,-15,-1,5,-3,3,0,0
2,2,-7,-3,-3,-4,8,0
-1,-23,9,-3,-3,-2,-28,-6
-9,-12,16,-6,1,1,19,0
-6,-21,-21,4,-1,-1,6,2
5,-5,-23,7,1,-1,4,-2
-2,6,-26,-6,6,0,-8,-2
1,46,-3,-1,-5,-5,-11,-3
-5,-2,25,8,2,1,-3,-2
-3,-66,-16,-11,-3,3,-2,4
-1,-26,14,2,2,3,36,-1
-4,-39,-10,11,2,-9,-24,-5
-1,-13,12,-3,-3,7,16,5
2,-13,-15,-16,-8,-3,-5,1
-1,20,12,22,0,0,-1,0
-7,25,13,-3,-6,-1,2,-5
3,62,-45,-12,-2,-5,-22,-7
-1,41,20,12,-1,-3,-10,3
-2,10,1,-18,-4,5,14,3
1,12,1,1,0,2,7,3
-6,-13,-22,-11,-9,-11,-12,-9
-4,-10,83,21,11,3,1,-7
9,-27,-84,-34,-19,-3,-7,7
-3,-25,7,25,5,1,8,-2
-4,-9,-36,-13,-8,-6,-3,-2
-5,11,-29,-10,-1,-5,-10,-10
2,0,20,10,6,2,-13,0
3,-24,7,-13,-2,7,11,6
3,25,7,2,0,-6,-8,-10
-2,18,23,5,-3,-5,-35,-20
9,-3,-25,15,12,5,26,28
-9,13,-7,-11,-9,-1,8,-11
9,-6,-22,-14,0,3,46,59
-4,17,45,-2,-8,-4,13,-21
-16,5,-19,12,10,-8,-43,-34
2,41,-24,-6,-1,-2,0,4
5,-20,18,4,-1,4,-11,-7
2,-11,26,13,4,3,16,26
-33,9,44,1,-9,2,5,-68
17,-19,25,9,-1,-16,-54,33
13,-16,-16,8,15,-2,8,6
8,-13,-16,-11,-8,1,3,-5
-45,1,46,1,-20,-16,-24,-64
34,-8,-56,-27,3,9,-10,34
9,-6,35,21,3,7,18,55
18,46,55,24,10,6,75,57
4,-13,-48,-13,10,-3,25,-21
-38,-50,37,-15,-27,-12,-53,-54
0,13,-21,-19,2,2,-2,-16
-26,-4,20,-2,-1,-6,-47,-20
31,20,-6,-2,4,9,1,30
8,12,-59,-10,-6,-5,31,-3
2,-18,-93,-18,14,1,-10,-25
-40,15,39,4,-15,-10,-19,-15
62,53,74,15,9,14,22,44
7,-50,36,32,22,18,44,3
-11,-5,127,43,-12,-21,-57,-31
-31,2,-128,-60,-14,-4,-13,-36
31,59,84,40,19,6,-1,48
-23,1,-75,-54,-7,-8,0,-20
-15,39,75,6,-5,2,-8,-15
-38,-26,31,2,-2,3,43,13
9,-23,27,9,-7,-2,23,0
30,21,-35,25,1,-25,-33,2
-63,24,-53,-12,8,21,-7,-30
83,10,31,47,10,8,29,50
-13,-46,-70,-88,-37,-23,-8,7
-19,-11,97,35,-4,14,36,-22
-4,-56,-87,-39,-23,8,24,12
-20,-33,36,3,11,-27,-99,-37
10,-22,23,-12,-16,-12,-15,20
-57,24,19,33,31,-2,31,2
46,-22,-86,-52,-22,-3,-8,1
5,70,12,74,42,29,35,6
55,7,-67,4,-3,1,72,10
-13,8,-27,-31,-33,-6,-23,-10
-25,121,9,17,8,-18,-65,-6
93,-62,1,-9,4,2,-7,5
-52,-7,-30,25,30,11,32,16
38,-9,67,-25,-30,-9,-28,9
-15,-46,-75,-5,7,19,93,-2
-53,-5,55,-40,-32,-39,-119,-41
-67,25,-69,11,19,31,23,-10
45,-37,25,12,3,1,37,15
17,9,127,18,-5,-8,38,12
-62,25,-100,-34,-6,-15,43,3
34,-62,22,-11,-15,27,-47,-26
-26,34,30,20,15,-40,-87,-12
8,27,-86,-48,-19,0,-8,-22
-3,-8,74,10,-4,33,7,2
-31,20,-15,-28,3,-9,-28,-25
-28,30,29,-5,-13,8,70,34
64,-59,72,55,25,-39,-67,-1
-31,-87,-128,-54,-11,-6,-47,-62
48,-2,38,-29,-14,14,65,79
69,80,-10,54,35,22,34,13
-43,1,-46,-26,-30,-39,-29,-15
27,-73,68,23,27,33,111,78
-68,-60,-38,-4,-3,-35,-122,-41
3,-37,12,-27,11,38,37,4
8,25,77,31,-21,-9,20,-11
-42,63,-20,15,4,-34,-90,-48
47,53,-47,-20,23,-16,-15,6
5,12,-16,-23,-5,16,51,4
18,-81,29,33,-10,15,-102,-34
-23,50,53,28,1,16,76,70
-91,64,-4,-27,-27,-6,111,-48
15,-27,-33,-4,-6,-36,-128,6
74,-63,27,-26,-27,5,69,19
56,-29,-47,-19,0,-8,60,17
-33,-81,40,21,-27,-11,-47,3
-46,-52,88,-8,-51,2,-30,-40
-21,76,-63,-48,7,32,51,21
-20,39,42,22,3,-7,-15,-29
41,-27,22,-2,-27,-40,-96,-1
-33,-26,-34,-58,-25,37,27,-60
-70,63,88,55,17,-6,-40,38
48,-76,22,23,50,5,103,17
-52,24,-44,-15,18,-1,-31,-17
-36,-12,-29,7,5,-32,-59,6
-29,83,66,-32,-7,-19,-37,-38
-25,-40,-34,-4,-49,8,-6,32
33,3,127,97,27,39,62,7
108,-21,-117,-61,-7,-31,-84,-1
-26,78,29,31,42,2,1,-3
37,50,-18,22,15,-7,17,-4
47,-96,12,-28,-10,-26,55,48
-56,127,19,-21,-15,10,13,-49
-33,-128,-50,56,-1,-6,1,27
-6,-21,60,-42,-41,-26,-90,-43
-55,118,-78,38,20,45,78,19
24,-59,-13,-12,38,9,-23,17
-59,24,7,-25,-9,-1,-3,-13
78,-95,68,32,30,-10,-22,-3
-80,82,70,1,-28,20,5,-97
64,-68,-58,-8,37,28,-5,111
-8,-76,104,11,-10,13,49,-67
-13,36,-128,-54,-33,-3,-49,22
-37,-109,101,66,35,4,29,47
12,16,-4,4,-9,-34,41,32
12,-105,-80,-29,-9,-2,50,-2
4,114,-32,-7,4,-38,-84,-51
92,-31,-44,29,-14,-3,-35,7
-79,40,15,31,-38,-21,-36,-71
42,-71,-20,21,26,-15,-41,76
-126,105,14,-24,-14,-14,-61,-35
97,0,7,-23,11,9,-53,-21
37,48,49,41,0,-18,-5,23
22,-33,-12,-11,14,-2,35,22
-98,51,37,23,16,45,46,-45
26,-45,-51,-78,-31,-60,-105,20
-42,-68,106,55,17,10,8,-18
-9,127,-15,-31,-13,37,67,-71
-34,9,25,-3,17,43,91,52
31,-31,44,-24,22,7,-1,13
-60,28,75,32,33,20,49,24
86,-104,2,-2,-13,-34,-58,22
-15,-29,-67,-38,22,1,48,-31
38,127,-6,17,-7,30,81,-5
11,52,94,81,53,66,127,9
91,-47,-40,29,14,-31,-90,84
-49,-4,14,-9,-4,14,40,-39
-39,-62,-95,-97,-87,-43,-104,-65
65,-128,-2,-7,20,6,-1,77
-62,98,14,-7,-6,19,58,-29
47,14,20,40,1,-23,-12,25
-7,21,-32,12,15,6,9,-29
-96,113,-16,-34,-36,17,45,-111
62,-81,-30,-36,-16,-68,-128,50
1,-34,80,4,-12,-6,18,35
-111,48,-24,-14,3,-20,-80,-83
95,-97,-29,7,15,-2,66,63
-69,47,14,-87,-3,-3,22,-10
49,63,-14,80,7,26,-34,-5
-2,79,95,72,31,57,91,-1
6,83,-105,-58,-19,-14,46,44
-42,109,10,29,41,46,116,-42
24,-26,-21,-72,-52,-64,-107,12
-92,37,12,-16,-74,-1,57,-22
55,-51,-32,45,-4,-19,-128,-11
46,73,97,57,37,19,92,60
22,-82,-21,-45,-30,11,40,13
33,-105,19,11,-8,-43,-22,8
33,-29,-48,-37,-9,-12,61,55
-106,17,-20,-6,-24,20,-12,-52
-27,67,8,-12,-33,13,52,-38
110,-110,59,25,83,0,37,116
-26,10,-60,-38,-12,-4,29,-33
-15,-63,-26,1,10,7,-20,-16
-64,-14,15,18,-27,16,18,8
-106,-52,4,-10,11,43,54,-84
67,-51,41,11,59,22,40,75
13,3,-12,31,-12,-8,29,1
45,-57,6,12,14,-23,-21,-24
-21,71,-66,-71,-14,31,-44,-18
-108,35,91,73,-9,-17,-74,-69
-46,-54,-57,-20,-23,20,-84,-42
127,1,-38,-15,37,-16,64,47
-89,-19,-2,-3,-31,-69,-101,-71
26,51,-80,-45,29,-14,-7,49
101,1,99,29,-5,44,75,59
-64,53,-43,-38,-6,-20,-71,-60
36,98,16,56,-7,-29,-19,22
-59,88,-36,-65,-36,0,-119,-107
63,93,26,74,71,-23,44,69
-58,-128,5,-1,-2,-8,-64,-65
21,-78,-11,-37,-2,12,-11,44
53,-30,-83,-23,9,3,73,48
-127,-43,-33,-76,-81,42,-3,-108
123,-71,12,27,85,0,98,127
19,-11,-23,47,-1,-7,111,0
-81,-21,59,58,5,6,9,-79
-42,-22,-7,-44,-24,-29,-73,-60
-67,18,-49,-63,-24,27,-16,-101
54,-50,5,42,20,1,-79,50
-30,-47,89,16,3,10,80,17
-25,8,4,-1,-43,-58,-69,-67
-41,12,-20,-15,-22,-42,-94,-2
65,7,-1,20,36,35,39,101
-60,13,-7,-26,-37,3,-35,-60
-64,-13,-21,-17,-5,-28,-21,-73
43,18,89,65,26,29,-19,71
57,8,61,13,12,-2,55,24
-69,-20,-73,-59,-15,-17,-52,-44
-46,4,86,23,4,25,32,-65
98,-14,62,7,9,9,-25,102
-7,16,-16,-23,-4,18,15,11
11,-7,127,34,9,-19,-25,7
17,-7,-13,-18,22,19,11,12
-57,13,-10,7,-24,-16,-49,-86
-4,8,94,19,2,-32,7,36
7,0,-64,-23,-7,33,31,-4
35,12,-17,6,3,-7,2,40
-22,-10,-24,-3,-15,15,34,-47
-25,8,-31,-12,5,-9,12,-14
23,-3,6,4,-15,-20,8,8
28,-5,61,30,13,1,-1,28
-7,-15,-81,-31,-11,4,43,1
-24,-12,-14,-14,-5,-12,-22,-29
4,1,-23,-3,-5,-6,-20,-8
-2,-5,-15,-6,-5,5,14,19
-4,66,31,12,10,2,27,-1
-16,-84,-26,4,-10,-2,-13,0
8,2,-12,3,-12,-3,-5,-13
13,93,-32,-10,2,-7,-2,26
-1,127,-11,-7,-2,0,17,4
-14,112,10,-6,2,4,0,-21
4,121,-19,-7,-6,-5,-7,-11
10,60,37,8,8,-4,5,21
-7,-27,16,5,-3,8,16,7
-14,122,-16,-9,0,3,-4,-18
-1,-96,-10,0,-6,-7,-12,-3
18,54,-12,-2,5,0,-8,15
-11,-38,-18,-7,-6,4,13,-9
3,5,2,-6,-2,-5,-10,3
-20,-52,11,0,-4,-6,-9,-12
13,-128,14,8,5,5,5,8
4,-83,-46,-2,-4,-1,10,0
-20,-60,-16,-8,1,0,-6,-10
13,39,81,12,-1,-2,-1,-2
-4,28,-55,-15,3,1,2,3
7,63,5,0,1,1,7,-2
-3,53,-21,-6,0,-2,-8,-3
-2,17,42,7,-7,-3,0,3
0,-38,19,5,5,0,-2,0
11,-13,0,-5,-1,-2,2,6
-13,-105,-9,-5,-4,-4,-1,-11
1,0,0,5,0,-3,-2,8
5,50,-31,-3,0,-3,0,-1
6,-2,-28,-9,-5,-3,2,2
-7,3,15,-6,0,1,-3,-12
3,10,17,18,2,-1,-2,1
4,-81,22,28,0,-3,-3,6
8,60,52,0,5,3,4,-4
-13,-50,-85,-27,1,-2,-1,5
3,43,-12,-22,-5,-3,-3,-4
0,121,-50,-11,-2,0,1,2
-7,65,34,19,-3,-1,0,-1
1,113,43,14,-1,0,-3,-5
4,34,10,6,1,-1,-3,2
-10,-70,-15,-11,-2,-2,3,4
1,-96,-11,-8,-5,2,0,-11
-13,-115,17,-2,-2,-1,-3,-5
-2,-62,-32,-6,-3,1,0,3
4,-56,4,-10,-3,-2,-2,-2
-3,-62,-1,-1,0,-2,1,-5
-10,31,-2,-6,0,-2,-1,8
5,15,9,4,4,-1,0,-7
-2,12,12,0,4,0,-1,4
-1,-3,-21,-3,1,1,3,6
8,-19,2,3,-1,-3,-3,-8
-13,-33,29,8,-3,-5,-1,-3
3,-25,-9,-6,-2,-2,-1,-2
-4,-25,14,-10,2,3,1,2
8,4,-15,-11,-3,-2,-1,-6
2,1,13,14,-4,-2,-3,-2
-13,-6,-40,-5,1,1,0,-5
-2,3,-5,3,0,-1,-2,4
6,-4,5,-2,-2,-2,-2,2
0,5,-15,-2,0,0,1,-5
-1,3,7,3,-3,-1,-2,-2
-5,0,-21,-14,-3,-1,-1,1
2,-4,8,7,-3,-2,-1,-6
1,-4,-7,0,0,0,1,6
5,11,37,9,0,-1,-1,0
-5,-2,-4,-2,-3,-1,-2,1
8,10,5,12,0,-1,-1,-2
-6,5,-21,-33,-4,0,-1,-5
