0,-2,0,-2,-1,3,1,1
-1,-1,5,2,-2,-2,-1,-1
0,-1,9,1,-1,-2,0,-1
-2,-1,11,2,0,-1,-1,-2
0,0,-14,-3,-2,-3,-1,-1
-3,-1,14,0,1,-1,-1,-1
1,1,11,3,-2,-2,-1,0
-1,-1,-2,-2,-2,0,0,0
-1,0,6,2,-4,-2,-1,0
-2,-2,-29,-9,-4,-1,1,0
-1,0,16,9,3,-1,0,-3
0,-1,-1,-1,2,0,-3,1
0,-2,1,-1,2,-1,-1,0
-1,-2,-10,-4,-2,1,-1,0
-1,-2,2,-1,-3,1,0,-1
0,-1,-8,-3,-2,-1,-1,0
-1,-1,10,0,-1,0,-1,-2
-1,0,-3,-1,0,-2,-1,-2
-1,0,3,-4,-4,-2,-1,-1
-1,-2,8,2,1,0,1,-2
-2,-4,-5,-1,-1,-2,-1,-1
-1,-1,-6,-2,-1,0,-1,-1
-1,-1,4,1,1,1,-2,1
-1,0,-12,-5,-2,-2,0,-1
-1,-1,13,4,-2,0,-3,0
-1,0,-6,-4,0,2,-1,-1
-3,-3,-37,-10,-2,0,-3,-2
0,-1,-13,-6,-5,-4,-1,-1
-1,-1,9,3,2,0,-1,0
-1,-1,1,2,0,-2,-1,-2
-2,0,11,2,0,0,0,0
-2,-2,-4,1,-3,-2,-3,-1
0,-2,-14,-3,-1,-1,0,-1
1,-2,4,-1,1,-2,-3,1
-1,0,7,0,-1,0,-1,-1
-1,0,1,-1,-1,1,-3,1
1,-1,3,-3,0,-3,1,-1
-2,-1,-5,-2,2,0,0,-2
-2,-2,-2,0,0,-1,-1,-1
-3,0,14,3,1,-1,-2,-3
0,0,1,0,-3,-1,-3,-2
-1,1,-10,-6,-8,-3,-2,-1
-2,-2,8,1,6,1,0,-1
1,-1,-4,7,5,0,1,0
-3,-2,2,2,1,1,1,-1
0,1,1,4,0,-1,-2,-1
0,0,-3,-7,-5,-1,0,1
0,-7,-1,5,-1,-1,0,0
-1,6,5,-1,-2,0,-1,-2
0,-1,-5,-6,-4,0,-2,2
-2,0,3,4,1,-1,-3,-1
-1,-1,-6,-1,-2,1,0,0
2,3,1,1,0,-1,-1,1
-3,-1,13,-1,-1,-1,0,-1
0,-5,-2,-1,-2,-1,-3,-1
-2,2,-12,-10,-2,-2,1,-1
-1,-3,16,16,6,0,0,-2
-2,2,3,-11,-5,-2,-2,0
0,-10,13,2,-4,0,2,1
2,15,-3,-5,0,-3,-1,0
-5,-10,-14,-9,-1,-2,-3,-1
-3,-1,-3,1,1,2,1,-3
-1,4,-5,0,-2,0,-4,-1
0,-1,1,-6,0,-1,11,-4
0,-4,-2,-4,-3,0,-1,0
-5,-14,-13,1,4,-4,-4,-1
-1,4,-3,3,-3,-6,-33,-1
2,2,2,-1,2,3,24,4
-2,-10,-7,-5,-4,-3,-6,-4
-3,-20,-10,-9,-1,0,7,-2
1,-5,2,7,-1,-2,27,2
-2,4,8,13,-1,-2,-11,-3
0,13,-4,-10,-2,-3,-14,-3
-4,3,-13,-4,-4,0,-6,-6
-1,24,2,-8,1,4,8,0
-1,-23,-12,1,-3,-2,0,-1
0,-5,28,1,3,2,6,3
-5,-1,-26,-11,0,-3,-9,-1
3,8,-5,11,0,-3,-16,-2
10,0,2,-8,-4,-4,-39,-7
-8,-14,-4,0,-1,-6,-5,-2
-3,40,27,6,3,3,-21,-1
0,-13,-7,-7,-2,0,29,-3
4,16,8,-6,-2,7,29,6
-3,-1,-13,-1,-2,-8,2,-1
2,-3,-2,4,0,0,-1,0
0,5,22,0,3,2,-11,2
-6,-23,20,-2,-4,-4,-13,-9
5,19,-5,-1,-2,-3,-36,-5
-9,1,-6,2,-5,3,31,0
6,-7,10,2,1,-9,-76,-17
-8,-22,-12,5,4,5,59,16
3,-5,-2,-15,-7,-4,30,-4
2,-19,4,7,0,-3,8,9
2,8,-68,-40,-10,-1,7,-1
-3,12,30,26,5,-5,-16,1
-9,8,10,6,-1,0,0,-12
18,3,2,-2,1,0,-5,6
-8,16,7,4,-3,0,23,-4
3,2,-17,-15,-4,-1,-12,-2
4,10,-62,-20,-1,0,3,2
-2,-5,41,27,3,-4,-5,-6
-3,7,-17,-9,-4,-2,10,1
-14,-45,-12,-7,-2,-7,-48,-9
-7,-53,6,-5,-4,7,27,-9
5,-17,2,2,2,2,-16,6
1,-27,8,5,-2,-8,-33,-2
6,-4,-17,8,0,2,54,10
-1,-9,6,0,1,-2,-24,-1
-7,6,-31,-20,-5,0,21,-12
-11,-31,35,21,1,-2,4,-3
9,19,-19,-22,-6,-8,-45,-6
0,32,-22,-8,0,6,23,10
-5,54,38,10,-7,0,-7,-5
1,41,-20,3,4,-1,0,-2
-6,-9,70,31,-2,-6,-8,-5
-4,7,-69,-25,-8,3,-4,4
-1,13,-15,-18,-4,-5,5,-3
-5,7,-24,-7,-10,-4,-19,-6
-1,11,-3,-5,5,11,15,3
-9,-23,-6,3,-9,-19,-33,-6
8,-19,-1,9,3,4,-4,0
0,-22,12,0,1,5,55,5
-1,-15,-6,-18,-6,-2,0,-4
4,4,16,2,9,6,7,11
3,-12,-12,-9,-7,-12,-20,-3
-13,-3,-23,-2,1,-6,-24,0
7,33,-18,0,1,1,35,6
-8,10,11,-47,-11,0,-14,-16
-2,3,-5,4,1,2,7,7
1,0,41,9,1,3,24,5
-13,14,-29,13,-1,-7,-21,-15
-4,7,22,-3,-6,-7,-26,-12
11,-2,-6,27,29,16,37,12
6,-6,-62,9,1,2,-8,2
2,5,97,32,5,0,0,-1
-16,-13,-29,24,4,-7,-28,-7
-17,-13,-4,-57,-22,-6,-9,-13
8,20,-40,13,9,8,31,13
9,3,4,6,21,10,-5,7
0,0,-71,-19,-6,-6,-58,-23
-1,-10,71,33,0,-5,54,23
-28,-10,58,-17,-5,6,31,-10
31,-8,-98,-40,-7,-8,-28,13
-17,-1,69,11,0,5,3,2
4,15,-69,-21,-12,-6,-26,-16
11,-21,29,5,-2,-3,9,3
-14,14,-61,-11,0,1,26,-10
18,8,39,-1,-4,4,1,17
-12,3,28,29,-2,-7,-41,-18
0,-43,21,12,-11,-19,-36,0
-1,1,3,-13,13,13,34,3
-11,-24,-62,0,6,-7,-13,-7
-19,48,38,12,-24,6,41,-5
20,-17,-53,-10,13,-7,-74,-1
12,27,-8,-14,-17,0,22,14
-2,-6,70,58,9,-1,-2,11
10,-53,-25,-25,5,7,-39,0
-6,36,29,-8,-8,-4,18,-1
-20,-12,18,-2,-3,2,0,-14
8,17,0,-11,-10,-5,29,0
13,-7,-23,7,9,0,25,8
7,-6,-10,-8,1,1,-7,0
-3,-5,8,-19,-24,-2,-12,-14
10,3,19,22,14,-13,-50,7
0,-54,-15,-9,-1,-15,-3,-1
-6,56,10,-4,3,14,-6,-4
-15,-22,14,13,5,-3,26,2
-14,5,5,0,-20,27,84,-5
-11,-36,-22,-36,0,-18,-94,-29
8,30,20,34,21,10,4,-3
15,88,4,27,-4,-30,-122,7
36,1,0,12,18,18,66,66
-17,-24,-9,-5,0,4,101,-11
-76,38,-12,-15,-2,26,-38,-100
55,-27,18,9,-16,-21,-27,62
26,-37,24,5,1,0,110,64
12,63,-4,-8,2,-2,-30,2
11,-56,-16,-34,-11,-18,-59,-1
-36,-61,-2,14,24,24,20,-56
-15,7,-16,-29,20,9,-7,-27
-14,-13,7,12,-28,5,-17,15
0,18,4,-16,-27,-23,22,23
-1,-2,12,-36,-19,-13,-21,-12
-8,7,-14,56,49,16,29,-34
-2,56,15,18,2,-11,-1,-2
1,-55,5,13,-5,-10,-15,-37
0,0,9,-11,5,20,4,35
-11,69,-18,-3,-13,-34,-66,-9
7,-25,3,-17,-8,2,42,8
-19,16,30,22,-3,-52,-80,-4
23,-21,-21,-35,-14,25,127,12
-10,56,10,-11,-20,-12,-44,-50
-22,-70,-24,-27,-16,-17,-22,0
40,-75,19,-8,-13,0,57,60
-46,-37,-10,18,3,2,-14,-46
-11,6,-15,-7,-5,-8,12,-21
73,-24,22,-10,10,11,77,83
-14,-2,-46,8,12,3,-36,-30
-23,-8,6,32,26,7,-18,2
4,78,4,-22,-22,-5,24,-15
22,92,7,22,24,13,-29,-7
27,71,-6,-17,9,10,13,36
-55,-17,-39,-28,-23,-7,-30,-82
35,-96,24,14,-26,-15,48,49
-34,-29,-2,-12,2,-4,2,-15
-1,-36,9,27,37,-9,19,33
33,23,34,63,40,37,55,-2
-66,-56,-40,-59,-60,-30,-107,-98
40,-14,-7,40,17,-17,-10,53
4,0,0,3,-16,21,100,-2
18,-11,5,-65,-45,-57,-47,44
-5,7,3,51,41,23,-42,-4
-3,-10,-29,7,-3,-16,-59,-30
-17,-3,19,-7,15,-3,-29,-15
-24,26,-25,-58,-45,20,97,-23
15,-5,25,57,58,31,-24,44
-10,6,25,4,2,16,25,-11
19,-2,9,9,8,13,90,19
11,15,18,43,23,-7,-43,9
9,-8,2,6,0,18,21,11
-41,5,22,2,1,28,70,-50
-4,14,-15,-28,13,25,-66,-24
-16,3,-14,-7,-12,-62,-119,-9
37,-22,-15,-24,-13,-29,68,70
14,16,-46,9,7,17,20,-9
-38,-1,-7,-3,-12,31,112,-6
-9,10,26,16,11,35,4,-30
10,-30,1,-43,-34,-33,-53,45
2,1,7,14,-9,-31,-27,27
15,5,-33,-31,-29,4,63,1
-29,-16,-26,-34,-18,-11,-80,-55
-21,16,17,33,41,61,91,2
33,16,21,1,9,38,28,8
45,-32,12,-22,17,-25,15,79
-22,2,-12,77,23,-19,-5,2
8,-14,0,-10,35,8,-62,-27
-24,6,4,-6,-47,-31,-10,-41
-22,10,-19,15,3,16,7,-13
9,8,-11,-21,-12,-22,-45,-10
6,3,26,-12,2,24,77,21
-68,0,-28,-19,-17,-2,57,-50
74,12,44,16,-2,-32,-45,56
3,-11,-11,-22,-29,-56,-36,3
-40,-1,-7,-7,-21,-22,-25,-25
-2,-9,-18,-11,19,0,-44,2
-18,11,-33,-12,-3,12,-49,-73
20,13,55,11,-15,80,100,16
17,-13,-11,-1,12,-37,-67,39
-6,-5,10,31,23,-9,-49,19
-33,28,-101,-41,-34,-19,-57,-61
29,-6,36,35,-18,31,127,40
4,-14,20,42,46,13,26,22
-11,-6,11,-24,-27,20,-83,-27
12,-10,-4,25,5,-34,-12,28
-79,7,-15,-11,7,-2,31,-45
78,-6,-20,-48,-25,-11,-8,-11
5,3,-21,-6,4,5,32,14
1,-3,94,46,5,11,31,-28
22,-9,-29,-2,28,41,66,100
-21,-12,-3,-19,-17,-13,82,-17
14,1,-3,-3,13,-21,-70,-7
-3,-20,8,-29,-43,-20,-1,-18
-11,13,-11,-8,-33,-18,-17,-7
-38,-6,-33,20,-10,-24,-128,-82
1,7,-10,-91,-62,-56,-41,-10
90,1,66,113,70,1,25,106
7,-10,-21,-9,19,-24,14,55
-17,17,32,-33,-47,-1,62,-34
-65,1,-4,-59,-7,-21,-63,-68
-47,5,-43,-9,-2,23,42,-68
46,6,1,-10,50,-26,-102,43
-41,1,-8,-6,-36,29,61,-79
-1,-14,20,0,18,3,103,105
37,-3,17,24,17,23,-39,16
-24,1,-6,-2,-52,11,93,-113
14,-8,31,8,31,21,-31,41
-37,12,-37,-7,9,-16,-41,-28
42,-12,35,-9,-2,12,86,95
60,-16,-1,51,70,-7,-98,71
-12,20,-31,-16,-25,-4,-66,-63
20,-15,12,49,9,17,57,-34
-80,9,-35,-36,-7,14,-17,-25
-14,11,-10,-52,-51,-64,-128,-54
30,-17,-28,-9,-29,1,121,59
77,16,47,37,19,74,107,90
-33,-21,0,-17,-19,-38,-86,-44
14,1,38,36,25,37,63,-14
-15,-1,1,4,24,15,42,39
-85,1,-39,-44,-38,21,5,-104
89,4,20,43,48,32,89,93
-25,-19,-32,-63,-57,-63,-39,-40
54,3,54,29,61,9,-88,108
-36,-5,-41,-3,-17,34,109,-93
-76,9,-4,-46,-51,-79,-113,-126
81,-7,-16,-23,15,-24,83,106
-7,21,33,23,23,23,125,-63
23,-4,26,27,-28,-33,-101,-26
-58,-1,-74,-11,17,-8,-48,-93
-30,-21,35,-32,-19,0,27,-1
35,6,-7,53,-40,-38,-100,10
-40,-4,15,-14,8,34,84,-25
51,7,-9,-53,32,-16,-55,67
23,13,56,114,92,63,87,48
-16,-20,-37,-27,5,-6,-33,-15
19,2,-2,-22,-9,-29,-90,12
-41,-2,-24,19,-13,32,78,-41
-68,3,5,-38,-26,-10,-104,-91
-1,13,-30,-17,-1,20,121,47
56,-9,12,34,44,-22,-46,52
-11,-3,15,-21,-44,-1,126,-4
-44,-2,-57,-31,-11,-13,-69,-31
9,-10,-10,-4,-10,-39,-40,-32
18,4,-1,19,25,34,17,18
23,-12,31,0,22,9,-7,116
-7,6,-5,-2,-13,40,127,10
-60,-2,-25,-16,-19,-34,-128,-117
48,-4,27,19,45,22,85,72
-15,4,25,23,-8,16,48,-5
-21,13,17,43,29,21,7,-31
4,3,32,5,-2,16,-9,17
7,5,-25,-18,-35,-34,-62,-43
22,-2,-33,-39,-19,-9,9,47
-14,-11,-33,-14,-28,-11,-53,-23
15,-4,15,2,5,-26,24,45
-21,-6,15,1,-12,-22,-20,-20
-2,10,-4,-25,-28,-11,-24,-39
4,3,-10,1,11,50,84,-19
24,1,15,2,12,14,97,59
-20,-11,-6,7,3,-27,-69,-18
2,-10,7,-6,-6,-12,-35,5
8,-11,27,8,5,3,-13,11
-20,14,1,3,5,40,59,-24
-34,5,-14,-4,2,14,55,-48
20,-3,15,83,82,22,-63,32
32,9,6,28,15,-9,18,1
5,-10,-13,-26,-18,-10,7,36
13,-8,-16,-4,-21,-18,18,21
-45,1,-7,-6,-4,12,10,-41
-12,2,-20,-35,-33,-26,-90,-56
-46,-4,2,0,5,15,47,-67
55,20,5,16,21,20,14,84
19,-2,14,-16,-21,-4,80,42
21,-2,1,-13,1,-12,-14,34
-9,-2,-12,-11,-20,-8,-45,-56
-24,-9,-15,-8,-2,0,6,-15
-15,-3,-18,-14,-22,-7,-25,-38
13,4,3,1,11,23,85,48
3,-7,-17,0,10,-11,-49,-17
8,3,5,13,-2,-1,-5,1
-4,-2,2,1,-16,-3,-5,-2
-10,-7,-10,-10,-8,-3,3,-13
-3,0,1,-7,-2,-8,-36,-5
5,-2,8,3,4,-5,-3,25
-3,-1,10,-9,-10,6,16,-19
-5,-3,22,-9,-3,-8,-35,-14
3,3,-22,-7,-5,-2,2,16
15,0,5,7,2,-6,-3,17
-15,9,-7,-9,-6,0,-6,-30
-8,3,-1,3,6,-2,-4,-6
9,-12,-28,3,-3,-4,-5,21
-14,-5,29,3,0,-3,7,3
5,4,-60,-14,-4,1,-13,-23
14,-4,30,8,2,-3,-5,13
-6,-13,-11,-6,-4,2,4,-4
-14,-62,-15,-10,-6,-5,-18,-11
2,-120,28,-8,-10,-10,-5,-10
6,-62,-16,-4,-3,3,-2,25
6,-62,23,3,-1,3,-6,-4
35,66,-1,5,6,1,0,13
11,124,41,5,2,2,0,0
-23,100,-72,-8,0,-6,1,-14
-7,127,-9,-9,-3,-5,-7,3
-17,116,-19,-11,-2,0,1,3
-1,61,6,8,3,1,5,-3
8,115,24,1,-2,-18,-13,-6
6,46,39,9,0,20,8,10
3,11,-27,-17,-5,-2,-3,3
-10,18,2,5,1,0,-6,-5
5,-27,18,3,2,7,2,1
0,-16,-76,-6,-2,-14,-1,4
9,-125,44,8,3,10,2,0
1,-57,-19,3,-1,2,-4,-24
-17,81,36,0,0,-5,-4,16
8,96,-37,-22,-5,-5,0,-5
-2,127,26,24,-4,-6,0,4
-10,127,-26,-17,0,-11,1,-1
6,-26,-40,-34,-2,17,2,-7
-1,118,59,11,-3,-2,-1,-4
-12,17,-14,-6,0,-3,-4,-9
-16,-43,-29,-11,-5,5,0,3
3,-118,21,10,-3,-6,-3,1
-13,-95,-14,-7,-4,-2,-4,-4
3,-105,-31,-10,-1,-6,-2,2
0,-34,-2,2,-3,-5,-1,-5
8,-83,-2,6,3,-2,-1,-6
-3,-98,26,7,-4,-2,-4,-4
-12,-74,38,35,6,-6,-1,-4
-9,-57,-58,-22,-4,1,1,8
6,-23,-31,-16,3,0,1,2
