-2,-2,13,7,2,-1,-1,0
-3,0,-12,-2,0,0,-1,-2
-1,-1,4,2,0,-2,-2,0
0,-2,-3,-3,-2,-3,0,-2
-1,-1,-22,-5,-2,0,-1,-1
0,1,15,1,0,2,-1,-1
-1,0,8,1,-4,-2,-4,-1
-1,-4,-29,-6,-3,0,0,-1
-1,-3,-1,-1,-2,-2,-2,0
-1,-1,-8,-2,-3,-2,1,-1
-1,-2,-11,-3,-1,-1,0,-1
-1,1,11,3,0,-1,0,-1
0,1,-1,0,-2,1,-1,0
-3,-4,5,-3,-2,0,-1,-3
-1,-4,-11,-2,1,-2,-1,-1
-1,1,3,0,-1,0,0,0
0,-3,-1,-1,-1,-2,-2,-1
0,-1,-9,-4,-4,-2,-1,0
0,2,8,0,-3,-2,0,-1
-3,-1,3,3,4,-1,0,-1
-1,-1,-2,-2,-5,-2,0,-1
0,9,-11,-4,-1,-5,-2,-1
-2,-2,-13,-4,-1,-3,-1,-1
-1,-4,11,2,-3,-1,-3,-2
-1,7,8,-2,0,0,1,0
-1,-4,0,1,1,0,0,-1
-1,-2,0,-2,-3,-1,0,0
1,0,-6,0,1,1,-1,-1
-1,-4,-5,0,1,0,-2,-2
0,-1,6,4,1,-2,-3,-1
-2,-3,0,-4,-4,0,-2,-3
-1,2,-2,-7,-5,-1,0,-2
1,7,5,2,0,-1,0,-1
-1,-1,-1,2,-3,-3,-2,0
-1,-5,0,1,2,1,-1,-1
-1,-2,-2,-1,0,1,-1,0
0,-5,-2,-3,-2,-1,-1,0
-1,-3,-2,-3,-1,0,0,0
-2,7,0,-1,0,0,0,-2
-1,-1,5,2,-5,-2,-3,-2
-1,-2,-1,-1,2,0,-2,-1
-2,-5,-8,1,0,-1,-1,-1
0,-6,-5,0,1,-1,-1,-1
-1,0,-2,-3,-3,-2,-4,-1
-4,-2,-1,1,-2,-2,-3,-5
2,1,1,-7,-4,1,0,0
4,4,0,9,1,6,2,3
-3,0,-1,3,7,-1,-3,-2
-5,-6,-6,-5,-6,-4,-4,-4
-2,1,1,3,3,-4,-1,-1
3,0,-1,-5,-6,-5,0,1
-2,-5,-7,-4,-9,-4,-2,-4
5,3,3,9,8,1,1,2
-2,-2,-7,-3,2,-2,-3,-3
-1,-1,0,-8,7,3,-1,-1
2,2,2,7,1,0,2,1
-6,-4,3,-23,-17,-1,-2,-1
-2,1,-3,6,0,1,-3,-2
-4,-4,-4,-14,-6,-2,-3,-4
-1,-2,7,3,4,-1,0,0
3,-6,-2,0,-4,-3,-3,1
2,10,6,-11,4,2,0,-1
-1,0,10,27,10,1,-1,-1
-7,-5,-3,-6,-7,0,-3,-2
4,5,3,14,6,-4,1,1
-1,-1,-5,-3,-5,-9,-5,0
-4,-10,-15,-2,-4,-1,0,-1
5,-10,4,-1,-2,3,4,3
4,20,13,8,6,3,0,0
-9,-19,-7,-14,-12,3,-1,-2
-1,3,2,10,-1,-1,-4,-2
-4,0,3,-6,-7,-2,-3,-2
-1,-15,-16,13,21,3,-2,-3
4,-2,22,8,-5,2,5,0
-7,-16,8,-13,-11,-3,-5,-2
-1,-12,-16,3,10,-1,-2,-2
-2,8,-11,-9,-4,-2,-1,-3
-1,-1,-15,-18,-6,-3,-2,-2
1,7,25,-10,-14,-3,-3,-1
-9,7,-4,22,13,0,-3,-3
4,-4,-7,-1,-6,0,0,2
2,1,15,3,-3,0,2,4
-10,-3,-20,-4,2,-2,-1,-6
9,-20,-20,-20,-4,0,-18,2
-12,-3,39,14,2,-1,5,1
9,-2,-6,-2,-4,0,3,1
-2,-9,-6,-8,-1,-4,-8,-3
-2,11,-6,-3,-9,-3,-10,-3
-22,-2,-10,-9,-2,0,5,-5
12,-9,38,13,-2,-3,-9,-3
22,16,8,-16,0,5,10,8
-21,8,42,5,0,-5,2,-6
28,13,-96,-29,-7,-1,-13,5
-38,-3,-3,11,3,-3,6,-6
-11,-8,16,2,-1,-2,-9,-9
5,-53,-48,-25,-9,1,11,11
12,-48,32,26,-9,-2,-3,1
12,-32,-11,-14,0,-6,-31,-5
10,80,-11,-9,-10,3,45,6
1,40,5,25,11,4,21,-5
-5,38,17,-21,-5,6,10,9
-4,42,-47,-8,8,-1,-1,-1
-3,-38,12,-1,-3,-9,4,1
0,-40,27,-4,-7,-1,-6,-1
-6,14,-25,14,6,1,-4,-9
1,3,18,-3,-10,2,3,3
1,-17,-1,2,18,6,10,13
8,60,13,-9,-2,-7,-5,0
-2,32,20,8,-13,-6,-25,-3
-20,-12,13,-12,-2,2,13,-6
12,-20,-25,0,2,0,-1,2
10,2,-29,-13,-3,-6,-9,-2
-5,13,42,18,15,10,20,1
10,7,-42,-31,-2,0,10,7
-24,-39,19,39,0,-6,-38,-15
8,-6,17,-2,-8,-4,-23,4
-5,-56,29,19,4,-3,44,-2
-4,42,-28,27,11,4,13,-4
15,11,-3,-15,-11,-3,-20,4
-19,-1,12,-10,10,8,26,1
-6,1,-3,-17,-4,-1,7,2
-12,-57,-9,-11,-3,-7,-11,-13
24,91,63,13,4,0,1,15
0,33,14,20,-9,9,5,-9
-5,22,-38,-3,3,-10,-23,-1
-14,-12,-69,-39,-14,-11,-33,-9
-6,10,74,49,18,7,1,-5
-3,-73,-57,-35,-25,-8,14,-11
19,-28,-21,-13,8,8,17,5
-2,90,50,19,2,-7,-14,-4
15,-15,-90,-21,-9,-6,-20,-7
-14,46,5,-2,-20,-7,-7,-2
-23,-53,52,-5,2,-1,3,-8
29,-30,17,10,9,9,-2,22
-4,-4,-47,-30,-15,-4,4,-5
25,-34,72,7,12,-12,-20,-3
-39,-7,-6,-3,-11,17,37,-13
24,-22,-75,-7,-4,-13,-49,8
-5,-3,54,20,16,5,7,3
6,-71,-41,-34,4,-9,-5,-11
16,15,22,4,-4,22,20,2
21,11,62,57,30,0,28,22
-48,-17,8,14,-4,-12,-36,-25
37,13,-11,-47,-12,-12,-10,15
-60,9,8,-5,-10,-31,-6,-22
-20,-15,29,59,8,30,43,-1
17,-31,-15,-25,-15,-4,-21,0
-2,23,21,59,37,13,31,11
20,-9,-49,-70,-43,-21,-43,0
8,-6,29,4,0,-5,-15,-11
-24,9,-25,-23,2,-8,1,-14
5,29,6,18,0,7,-16,7
19,-6,-23,-33,10,-13,-3,9
11,-7,34,26,-27,19,5,-11
20,-8,-23,-9,-8,-2,3,12
-22,-9,-58,-6,6,19,85,-6
14,-3,11,6,15,-23,-67,-3
-41,-4,-5,-2,29,-13,-16,6
3,-11,34,-9,11,15,9,-3
3,-3,-4,25,-9,-6,-48,-11
59,-3,27,5,0,18,40,17
-34,-3,1,-8,-13,-14,6,-16
-15,-10,-2,-6,14,-2,0,4
-17,-10,-8,60,43,15,15,0
-13,-3,13,-8,-20,-9,-34,-25
-43,-14,0,-52,-35,11,40,-15
41,-5,-52,-5,32,10,32,34
-52,7,-1,-18,-21,-13,-79,-55
-38,2,-34,5,-11,-15,-34,33
-73,1,30,14,-5,1,70,-25
76,8,-28,-31,4,1,-29,7
28,2,25,-26,-2,-26,13,13
-62,0,-19,23,11,6,5,-6
24,6,-1,22,1,-14,-25,14
61,-3,-7,-19,-31,-22,6,28
-67,-4,6,-22,-21,4,-32,-43
80,-9,23,11,27,17,25,13
-14,0,-25,50,37,7,-37,19
-95,-5,-15,-41,-33,-19,-74,-83
102,8,48,22,3,28,64,77
97,10,-13,-5,0,-9,-5,4
41,1,-16,-1,7,0,54,13
-128,-6,-16,41,0,-11,-37,-45
94,5,-18,-16,-23,12,-27,44
-33,-4,-1,3,21,12,60,18
34,4,-9,-31,1,-27,-39,-19
1,-5,6,-2,-9,-12,27,41
-103,-4,2,43,18,15,59,-35
-31,-5,36,14,18,-1,-47,15
-8,-4,-57,-63,-41,-11,-56,-55
-7,-6,25,16,15,24,28,0
101,-2,-57,-24,-15,-39,8,51
-93,1,-8,16,-3,61,47,-48
-52,-1,24,22,24,-13,-4,30
-28,-7,-8,-42,-22,5,-18,-34
-95,-3,52,6,37,0,23,4
68,5,-31,-8,-32,-33,-25,32
38,-7,-17,-23,-11,12,-16,-4
27,8,9,35,25,15,84,20
42,2,-62,-12,-26,-34,-86,-81
-93,-3,-10,-30,-29,7,-39,-22
-12,-1,28,-3,5,-14,39,43
112,-5,-2,-1,-13,1,59,44
-89,3,13,-16,51,2,-35,-6
1,-1,5,-15,-24,14,13,20
45,-2,-6,5,25,-20,-27,7
-82,-1,15,-6,-58,46,84,-35
38,-6,-18,66,65,-22,17,30
88,5,2,-6,3,-32,15,24
-33,-2,-7,-7,2,-5,-43,-43
43,7,21,57,24,7,36,42
-107,-4,-4,-34,-74,38,-38,-105
-8,-10,-14,49,79,-24,-46,-18
112,7,-1,-63,-13,-12,-21,59
-27,-2,-22,14,15,12,-7,-19
-37,8,-4,-40,-56,-29,-52,-34
71,-1,12,87,39,-36,-7,31
-51,-2,8,4,-40,-2,33,-51
-36,-3,14,2,41,-46,-113,25
32,4,-31,-20,-39,18,-48,-39
30,-1,20,11,45,14,107,50
-35,-6,-11,-43,-49,54,41,17
-26,-6,41,-14,4,-71,-62,-31
-89,-3,-32,-31,-88,23,12,-75
88,0,49,60,20,12,81,63
-32,-7,-1,-23,4,25,74,-20
-38,0,-11,-7,-10,13,-43,-33
-49,-3,-12,-49,-44,43,17,-61
-66,-8,-5,32,-24,24,-5,-80
-55,10,9,24,38,-42,-90,-34
95,-4,11,3,-6,-12,17,94
18,-1,24,5,45,-18,28,60
-118,-1,-39,-48,-36,36,61,-99
-32,-2,-10,-4,17,-15,-82,-5
-39,-9,-46,-22,-32,-63,-45,-103
7,-4,56,71,55,19,116,102
94,4,5,-8,18,17,45,102
-90,-4,-45,-63,-67,34,-54,-96
19,4,-1,-5,13,3,-29,-38
71,-2,2,-21,23,13,123,127
-128,-2,-15,-1,-10,-19,-44,-60
-14,-8,38,118,20,17,4,-37
-125,5,-25,-53,8,32,50,5
44,5,-39,-55,-5,-40,-51,-20
45,-1,29,81,-10,30,-55,11
-7,-2,2,-13,6,-44,-11,55
-8,1,-16,5,-18,59,125,-82
-121,-3,25,21,11,-39,-128,-105
63,1,-44,-89,6,-54,34,83
-29,-7,-9,-25,-28,11,-13,-28
51,-5,5,41,42,3,33,11
44,9,1,19,-46,8,-12,-22
-128,1,0,-6,-1,-19,36,-19
-35,7,17,-28,-58,5,6,-65
107,-1,36,35,31,-13,92,127
-97,-2,-9,-92,-25,-1,14,1
112,3,-45,-107,-52,-7,-28,-11
-12,-4,17,127,79,-10,54,1
-123,-9,-7,-109,-73,-14,-87,-47
8,-2,-13,-16,-32,-54,-47,-17
-128,-5,58,-5,-35,5,52,-54
127,-9,-41,-81,-1,22,93,16
-50,3,-38,-30,-34,-43,-102,-20
106,6,23,88,97,-5,44,87
85,-3,-12,-13,-4,-22,-44,25
-37,13,-13,-27,-31,-9,-68,-91
63,-3,0,21,4,16,-53,45
-103,-9,46,47,45,32,44,-39
82,0,-23,-47,-29,-27,-125,58
-55,2,31,45,57,-4,118,127
-46,6,12,-50,-30,67,92,-113
-74,-6,18,28,-2,23,-72,11
-63,-4,17,87,66,-14,-58,-56
-64,-7,16,-84,-101,-28,-22,31
-82,-15,-69,-47,-30,-22,-16,-20
121,-11,9,19,59,28,52,32
-65,11,23,18,9,71,-46,-119
35,0,-10,10,53,-12,-35,33
-57,10,-13,-1,-31,-22,48,-51
80,9,20,3,15,14,-53,34
-72,-14,-26,-29,-6,-9,65,-10
127,5,-60,-8,-9,25,-32,-19
-33,12,49,35,1,-56,-59,38
56,5,-14,1,-15,55,101,75
26,-1,14,20,36,22,71,88
-55,-1,43,9,18,26,61,-45
19,-4,-48,-16,-18,-8,4,15
-29,3,16,22,-4,-12,-4,-23
-1,-8,5,-32,-62,-38,-28,-20
-38,5,0,15,12,2,1,-2
40,1,25,86,60,49,13,45
-79,-1,-25,-20,-3,-12,49,-113
70,6,-12,14,20,-3,1,71
33,-5,9,-12,-2,-18,18,18
-15,-10,1,-7,-9,14,19,-19
-71,1,-22,15,-12,-7,-11,-27
61,4,-30,-11,-3,-8,-43,-38
53,-15,25,4,6,3,0,15
13,3,-16,3,6,11,1,13
26,1,5,-12,2,-9,-2,27
-53,2,-11,-29,-28,2,-21,-43
-58,-2,0,19,20,7,6,-40
122,5,23,50,54,17,-11,81
12,-11,9,-55,-33,-1,66,7
-39,-3,4,37,26,1,4,-10
-1,3,-17,-4,-5,6,25,0
-30,-2,15,-5,-7,-5,-5,-30
18,-4,-17,-34,-31,-26,-20,8
-16,0,2,11,17,11,2,-22
27,9,8,17,2,8,-6,1
13,-3,16,-2,3,0,5,4
-8,-1,-46,-3,-5,-14,-32,13
-32,1,-4,-28,-28,-8,-6,-46
20,-5,-11,-3,-1,-8,-15,23
-21,-4,14,13,1,-8,-4,-2
3,16,19,-5,-2,-5,4,-5
-26,2,14,-10,-15,-2,-3,-18
15,4,-9,-1,-3,-3,5,-7
-3,4,-3,-4,1,4,2,25
11,-12,-3,0,-2,-9,-18,16
-24,-5,-1,-7,-3,2,4,-21
-1,-3,0,8,-5,-6,-7,6
-5,-1,-9,1,3,2,-2,-23
-9,0,-2,4,3,-5,-11,3
8,8,22,-4,-9,-4,-4,-1
-1,-12,-11,-9,-4,-1,6,6
0,-87,-48,-4,3,-1,-1,-7
2,-44,40,4,5,-3,-2,3
-3,-21,2,-10,-6,-1,-2,-5
-9,7,10,8,2,-1,-3,1
3,39,27,2,-1,-4,1,0
-1,-52,-15,-4,-1,-3,-7,-3
-14,-126,-35,-11,-8,-1,-5,-22
11,49,-14,-10,-3,-2,-3,24
-13,104,-1,-5,-4,-4,-2,-3
-6,127,31,20,4,0,-1,-4
-9,116,0,-1,-4,-1,1,8
13,-21,-24,-13,-3,-1,-3,-1
5,-5,17,-2,-1,-2,-3,-7
1,63,17,9,-1,-3,-4,-1
4,123,-85,-18,-2,1,-3,5
-10,121,-43,-17,-2,3,-2,-11
-6,99,69,14,-1,-4,-2,6
3,16,-39,-6,-1,-4,-4,-8
-6,67,17,-4,-4,-1,-1,4
-7,-5,83,27,6,0,1,2
-2,-124,-63,-15,-3,0,-2,-6
-5,-122,-49,-19,-3,-3,-2,-3
1,-125,-45,-13,-1,2,-3,7
-17,-112,18,-1,-4,-1,0,-3
-4,-123,42,14,5,1,3,1
9,-114,-12,10,-1,-5,-1,5
1,-128,33,13,-6,-5,-5,-3
-4,-128,-36,-26,-2,3,0,2
-1,-26,52,6,-2,-1,-3,-3
-5,-55,-99,-26,-5,0,0,-1
12,4,34,-15,-3,-7,1,-10
4,-21,-5,9,-3,-2,-2,1
-17,24,-25,-2,-1,-2,-2,-3
0,29,33,5,0,-2,-3,-2
-2,-41,14,21,0,0,-1,1
4,-32,6,-4,0,-3,0,4
6,-36,-35,-7,-2,-1,0,-2
-2,-12,11,-6,-5,-1,-5,-5
-8,-2,6,2,1,0,2,3
-1,11,0,1,1,1,0,1
2,11,-21,-6,-1,-3,0,-3
-2,5,35,11,5,-2,5,1
2,13,26,-1,-7,3,-2,3
0,14,-46,-1,-4,0,0,-1
4,6,-21,-18,1,1,-2,-2
1,20,17,-5,-9,-1,0,-1
-2,8,-14,-9,0,-1,-1,-3
-3,14,25,17,3,-4,-4,-1
4,2,4,-2,-6,-6,-2,-1
-4,10,9,11,6,2,-3,-2
-3,-20,4,-4,5,3,3,-2
-2,-11,-1,-1,-2,-3,-1,1
4,3,0,-2,-3,-3,1,-2
-1,11,9,-2,-4,-4,-1,-1
-1,12,-10,2,-1,-2,1,0
-1,7,8,-2,-5,-2,-1,-1
0,4,-3,3,2,0,-2,0
-4,10,-10,-6,-1,1,-1,1
-2,13,-7,-4,-3,-2,-1,-2
0,8,53,8,0,-3,0,0
-2,5,1,5,-2,1,-1,-1
1,8,2,-8,-2,-1,-1,0
-2,8,-19,-3,-2,-2,0,0
-1,5,-2,-7,-1,0,-3,-1
-1,6,-21,-4,1,0,0,0
-1,3,40,10,-1,1,-2,0
-2,7,20,10,2,0,0,-1
-2,-3,-12,-3,-5,-4,1,-1
1,0,7,4,4,3,1,0
-1,-2,-18,-8,-2,-1,-1,-2
0,6,-2,-3,-1,-2,-1,1
-2,1,-7,-2,1,1,0,-1
-1,-2,-4,-2,-1,-3,0,-1
-3,-5,-6,-5,-1,-4,-3,-2
-1,-3,0,2,1,1,-1,-4
-1,1,5,3,-2,-3,-2,-1
11,-2,-2,-5,-2,0,-3,7
0,2,7,2,1,0,-1,-8
