-1,0,2,2,2,0,-1,0
-1,-1,-4,0,-3,-1,-1,0
0,-3,-3,1,2,0,-2,0
-3,-4,-3,-4,-4,-4,-4,-2
-1,-2,-4,-2,-1,-1,-1,1
-2,1,3,1,3,-2,0,0
0,-1,2,-3,-1,2,-2,-1
1,-1,-3,-1,1,0,1,0
-2,-3,1,0,0,-2,-2,-3
-1,0,-4,-2,-2,-2,-1,0
-2,-2,7,-2,-2,-2,-1,0
1,-1,1,1,2,0,1,-2
-1,-1,3,3,-2,1,-1,-1
0,-1,-1,-2,-1,-2,-1,0
-1,-1,-10,-3,-2,0,-1,0
0,0,-12,-3,0,-1,0,-1
-2,-1,6,-2,-3,-2,-1,-2
-2,0,8,5,1,2,0,-2
-1,-1,-2,1,3,1,-2,-1
0,0,-2,-1,0,0,-1,0
0,-1,-8,-2,-2,-2,-3,0
0,-2,-6,-4,-3,-3,-1,0
-1,0,4,0,-3,-2,0,-2
0,-1,1,-2,-1,0,-1,-1
0,-2,-8,-2,-2,-1,1,0
0,-1,1,-1,0,0,-2,-2
-1,-1,-1,-1,0,1,-2,-1
-2,0,-3,0,-2,-1,0,1
-1,-1,8,0,0,0,-2,-1
-2,-2,10,-4,-4,0,-1,-2
-1,0,-4,10,9,1,-1,-2
-1,-1,-2,-1,-3,-1,-1,-1
-1,-3,0,1,-2,-2,-1,-1
0,-2,-7,-4,-3,-2,-1,0
-2,-4,-2,-7,-5,-2,-1,-1
-2,-8,-4,-6,0,0,-2,-2
1,10,8,6,8,0,-1,0
0,2,1,4,0,-1,-1,-2
-2,-4,0,-8,-2,-4,0,-2
1,-5,-5,1,0,-1,0,-1
-1,4,-23,-12,-12,1,-3,-1
-2,-13,1,6,5,2,-1,-1
0,2,6,0,-2,-1,-2,-2
-4,12,13,5,3,0,-1,-2
1,-6,5,1,5,1,1,-3
-1,3,-16,-6,-5,-1,-5,-3
-1,-9,-2,-4,-6,-3,-1,1
-1,7,-3,-2,5,-1,2,1
2,5,-9,-2,-5,-3,-1,-1
-6,-7,-8,-7,-4,-4,-2,-4
4,11,9,4,-1,-1,1,2
-1,2,-1,-2,-3,-1,-4,-3
2,-4,10,2,2,-1,0,0
-19,-6,-7,-3,-6,1,1,2
0,-3,-5,-4,-3,-1,-4,-5
-2,3,-8,-6,-6,-2,-2,0
0,3,10,3,0,-2,-1,2
0,16,25,9,5,0,-2,-7
-4,0,-16,-4,0,0,-3,-9
-9,-5,-10,-6,-2,-3,-11,0
3,-3,-16,-9,-6,-4,2,6
7,2,49,9,0,2,5,4
5,-2,-27,1,5,5,24,8
-3,-18,74,17,2,-3,-4,-9
-8,-6,-15,-6,-2,-5,-13,-14
-1,-10,-17,-9,-4,-6,-17,-3
8,3,-14,-2,5,5,15,23
5,1,43,5,-1,-1,-1,-6
-9,-8,30,15,2,1,-4,-9
1,-10,-17,-9,-4,-4,-9,6
7,-5,1,2,-1,-1,1,4
-24,8,-35,-9,-3,-2,8,1
19,9,-9,-7,-4,1,9,6
2,2,-34,1,4,0,-8,-18
-2,-3,2,-7,-5,-5,-20,1
2,3,8,1,1,1,9,3
-14,-10,15,9,7,1,-2,-5
8,19,-2,-2,-1,1,4,3
-11,-11,-28,-5,-5,-5,-12,-10
4,5,-10,-7,-8,-4,-5,-7
-8,-1,-5,-3,3,4,7,4
4,0,-32,-9,-3,2,6,3
-4,-7,31,10,2,-2,-5,-9
-5,9,-29,-15,-3,-3,-8,1
9,-5,-7,3,-2,-3,-4,-1
-4,-16,77,33,9,3,19,12
-7,2,-22,-16,-5,-3,-3,-9
7,12,6,5,0,0,-1,3
-6,10,2,-7,-3,-5,-8,-2
0,-10,-39,-11,-6,1,-1,-2
-1,-4,31,5,-10,-4,-14,-11
4,1,0,-3,0,2,4,8
2,16,23,4,1,-1,-4,-2
3,-12,-32,-12,-6,-5,-6,0
1,-6,31,18,7,3,13,4
3,-13,-66,-19,-2,1,0,-6
-12,6,20,14,6,6,12,4
8,22,21,2,-3,-6,4,4
-12,11,3,-8,8,1,-7,-12
0,-33,-26,3,1,-2,-3,0
-8,-29,-18,-14,-9,-7,-13,-12
0,16,-54,-15,7,1,5,5
-3,-14,48,25,-14,-7,-2,3
1,14,-19,12,12,-1,19,8
0,-16,-13,5,2,-1,-7,-2
-20,19,-28,-2,4,5,-7,-11
14,-6,-18,-5,0,-3,4,4
-3,18,13,-8,-3,0,-13,-2
-3,33,-10,-5,-10,-12,-11,-8
13,-46,-12,-8,0,4,17,-1
-11,-40,-44,-24,-5,-11,-26,-9
-10,-72,59,28,1,1,-32,-13
6,3,-44,-26,8,12,35,6
2,-34,96,23,-6,5,26,-1
-8,-34,-26,9,15,2,16,2
22,34,29,3,-8,-18,-28,6
-7,19,-15,-16,-14,3,-17,-13
14,112,-20,8,19,2,-2,8
-14,66,20,11,-6,9,9,-4
4,17,-94,-12,-1,-2,6,-4
-14,-40,-26,-26,-21,-11,-5,3
-17,-74,-36,-37,-12,-16,-33,-32
27,-19,88,22,19,15,1,19
11,-13,32,7,-1,-1,17,4
-37,6,48,39,17,14,22,4
4,-11,-63,-33,-29,-15,-46,-5
13,44,-57,-18,13,-10,-6,-3
7,-44,24,11,-5,0,13,-8
20,13,46,15,11,-1,14,25
-36,-23,78,-8,-28,-5,25,-7
-104,52,-24,33,32,15,7,-22
24,-9,-47,-17,-2,4,19,27
66,-44,53,20,-2,-4,-19,-10
-3,-16,-71,-27,-12,-6,12,-5
1,37,-53,-24,-10,-10,-18,23
6,99,49,-14,-18,10,35,7
-9,-66,9,2,-24,-19,-66,-16
14,43,53,13,18,15,50,12
-10,-86,27,-2,-21,-2,-13,-10
-1,5,-19,17,22,-3,-3,2
-33,45,-14,-27,-13,-10,-32,-15
20,56,24,33,2,-12,-18,-10
-4,17,-14,-15,-11,9,41,20
8,-59,-9,-1,-10,-3,-39,-33
-12,3,-54,-17,2,9,45,-16
-16,14,15,19,16,3,21,41
-42,-38,4,-10,-8,-3,-16,-3
10,-18,-1,-9,1,0,-5,-14
-59,49,-10,-10,-15,-23,-92,-31
51,-4,-10,3,20,8,9,13
61,127,71,-8,-25,5,68,12
-24,-102,-13,-15,19,-3,-48,-9
-42,-89,26,28,12,10,47,-3
-91,5,-47,-12,8,-5,-11,-21
12,35,29,5,-26,-15,4,4
-27,48,-2,-1,17,5,-5,1
48,35,15,37,2,-3,-71,-31
37,-73,-33,-16,-13,0,-35,64
-1,53,31,17,22,44,80,-16
68,58,14,-30,-31,-50,-30,21
-5,-29,-69,-10,19,-6,23,20
-8,48,26,13,9,-6,-46,-41
-48,-105,6,-6,-8,-32,-28,-24
12,-3,-81,-17,-15,23,54,20
1,5,52,11,8,41,72,2
-17,-22,-60,-22,-19,-37,-104,-97
54,24,-32,-17,30,-12,-2,60
-66,23,114,49,-2,6,48,9
86,7,-37,-12,-22,-7,40,1
5,-45,63,-22,-12,13,93,56
40,85,-4,68,17,13,-103,-13
-62,-3,-98,-14,9,-11,-27,-2
21,-31,57,-35,-6,7,1,-12
-4,51,64,55,32,15,14,-1
-59,37,-23,-33,-27,4,42,-37
-20,-18,-29,3,26,6,-5,9
67,19,-31,15,16,43,75,13
-7,4,-26,-42,-36,-46,-70,-6
19,3,-14,10,15,12,30,-21
-19,-63,17,25,33,31,29,-12
-128,83,-24,-33,-12,-12,-24,-62
-16,-81,38,-29,-26,-1,-20,46
81,-34,-26,26,28,-5,56,83
-10,52,8,-5,-15,-14,-8,-29
35,5,-9,-9,-16,-12,10,38
-83,74,24,27,-31,23,63,-76
-51,-128,-16,-61,-7,-26,-57,42
111,-58,52,13,-3,-10,14,-5
-31,64,-18,4,-27,17,-50,20
11,78,-57,32,50,13,98,19
-80,77,1,-51,-76,-30,-83,-69
72,70,-38,11,28,17,35,-1
36,-88,19,-6,55,45,107,35
21,12,15,-26,-33,-50,-109,-22
-18,46,-6,7,6,-5,-17,-14
-101,10,37,-20,-38,2,40,-72
41,-82,-30,-11,-41,-53,-89,25
42,-11,31,31,22,11,15,32
2,83,5,-8,17,16,41,-26
-95,17,-9,-33,-7,-77,-103,-26
36,-29,-7,54,-28,6,-32,23
-9,-15,35,24,13,9,82,76
96,-44,-5,-25,-27,-5,-33,-16
18,102,-35,-56,-32,34,77,16
-116,109,86,58,74,13,-35,-72
11,-90,-98,-58,-33,-50,-106,-12
0,-128,43,39,4,-31,49,-4
47,-89,-18,9,31,30,52,20
-38,-34,30,-3,-21,-16,-6,-52
2,-26,7,54,85,96,110,53
-9,-86,-31,-30,-5,8,48,-53
-21,-47,19,1,-45,-61,-78,22
23,19,-43,-52,2,-16,5,17
-53,34,0,37,24,7,-31,-41
-56,3,-24,-1,-12,0,-53,28
56,26,43,52,40,41,57,-3
69,39,-11,-62,-25,11,99,66
-44,12,-20,-21,-19,-35,-45,-65
-29,-5,1,-11,-11,-46,-97,-4
-21,18,30,59,-27,27,39,-27
-116,4,14,31,61,-28,-105,-2
127,-8,-37,-37,-34,19,-15,-32
46,8,-8,-35,-13,9,51,67
-55,-5,-31,5,-1,6,-123,-18
15,-12,9,30,41,43,75,-76
7,9,2,-17,18,15,64,82
-53,10,32,65,20,13,-66,-32
39,-8,24,24,5,15,20,77
-38,-5,-31,-47,-34,-6,-50,-1
-63,24,-7,-11,-33,-57,-128,-42
28,-7,-1,39,35,58,127,-28
33,-8,16,-36,-5,-21,-23,68
127,15,54,19,-16,-32,-4,-10
22,4,-5,-22,-59,14,28,-31
6,-18,6,-23,-10,4,-4,-1
-68,9,5,-13,8,-13,-31,-68
55,2,-60,8,26,17,62,53
98,-3,100,53,38,31,120,112
-3,4,-100,-52,-41,-4,-51,-88
-20,0,-50,-28,-6,-66,-128,11
-30,-14,70,-22,-11,20,116,94
-66,-5,-35,-34,-32,-82,-121,-124
-23,7,13,77,34,6,-58,71
43,6,-17,7,4,57,75,64
7,1,-46,-11,8,-11,64,53
-53,-5,20,18,35,44,106,-57
-18,11,20,-3,-38,-61,-100,-14
37,-11,48,31,10,-56,41,40
2,1,-26,-10,-45,-8,3,-25
-52,-1,-63,-82,-60,-41,-81,-70
-1,-14,82,30,43,-4,105,60
-110,0,-2,-15,-12,50,15,-43
89,6,21,20,-17,-58,-92,42
-30,-12,-61,-14,-25,36,24,-79
36,-3,-18,-3,15,12,85,55
-81,-2,21,-20,17,-8,-43,-62
15,-2,-43,-2,-6,20,-51,1
35,1,42,6,9,76,88,34
-17,1,-10,32,15,-14,-77,58
-29,0,-5,-32,-18,2,-12,-36
-12,3,18,22,17,-1,63,12
-26,3,14,-54,9,36,63,-29
6,7,-12,-18,-11,3,112,83
73,-4,0,70,23,20,66,-8
-104,-6,-54,-42,-2,-13,-51,-77
63,11,-19,32,34,-37,-104,60
-19,-12,42,-23,-51,49,104,-52
31,7,-82,-16,-28,-93,-119,49
-8,-10,32,21,18,12,112,33
-44,-4,33,51,22,-6,19,-41
43,4,46,15,15,21,1,-64
14,7,-9,-20,2,11,-46,-1
-96,-1,-63,-17,-13,-34,-90,-53
-87,-9,14,1,-32,33,63,-48
77,-6,62,-7,67,9,-39,56
45,-9,-45,50,32,20,127,54
-8,8,23,-12,-40,17,34,-12
-28,-1,34,46,35,-7,-3,37
-67,4,-37,-3,-19,-18,-80,-128
76,-1,63,-39,-34,-11,34,55
-2,-1,25,20,-4,-16,-26,8
64,1,21,21,35,-2,-25,48
-29,5,-89,-32,-22,-6,-12,-47
-8,-2,17,-1,2,-8,-45,-36
-87,4,-22,-26,-19,-2,18,-70
95,0,-2,5,-9,-4,19,81
-3,-3,-40,-12,-5,4,-15,5
15,7,43,3,19,26,53,7
-1,-6,-3,1,14,13,-5,-1
-29,3,-7,-19,-3,-25,-38,-12
-8,-8,-8,-9,-1,16,-2,-3
-6,-1,7,-1,-4,14,5,-19
42,5,6,-4,-10,1,8,-21
53,-4,-28,6,18,-17,10,56
19,-2,-36,-14,-12,-11,-29,0
-39,2,2,-41,-46,1,3,-33
18,0,34,10,21,-7,-22,4
-11,-4,-31,-17,-15,3,6,6
6,-3,13,4,11,3,15,4
-32,2,11,-9,-2,4,4,-29
15,-5,-33,-3,3,-2,-14,8
2,2,58,3,0,-8,-15,13
-6,4,-28,-14,-3,-13,-10,-5
-6,3,-14,2,-1,-24,1,-10
25,14,8,0,0,24,-27,9
-17,6,7,3,-6,-4,-2,-7
7,-6,-4,3,4,-2,4,2
-22,8,16,0,-2,7,-2,-17
0,7,-42,-7,1,-11,-6,2
-11,-15,-20,-6,-6,-7,3,3
-1,2,40,11,3,-1,4,6
8,-1,-36,-10,2,2,-7,1
2,-18,31,8,0,-8,-18,-9
0,-2,22,2,-1,-2,-4,3
-5,10,-11,-2,-5,-11,-7,-3
-10,0,9,1,-2,8,-2,-9
1,0,-7,-6,1,0,-3,5
0,-67,-36,0,-1,-2,0,-1
-2,-50,42,5,3,-5,2,-6
-6,77,-31,-10,-2,5,3,-8
1,40,10,8,1,-3,-4,2
1,127,18,-4,-2,-6,-6,1
-7,106,-40,-6,0,-4,-4,-1
-3,61,3,3,4,6,-2,-1
3,9,-31,-9,-4,-7,-6,12
-7,-67,54,10,4,1,-3,-10
4,-64,-19,-6,-2,-1,0,1
6,35,20,7,1,3,0,-4
1,15,-2,-5,2,-3,-5,2
-1,16,-9,-7,-5,-2,0,-1
-2,4,12,5,3,-2,-2,-2
-7,85,-19,-5,3,-1,-2,-12
0,-114,53,8,0,-2,-2,11
2,-88,-22,4,1,0,-2,2
-2,106,-8,-10,-3,-1,-4,2
1,60,21,5,-2,0,0,-5
1,127,-11,-9,-3,-1,-2,-3
-11,82,-13,-2,-4,-4,-1,-3
13,-119,-15,-2,0,-2,0,2
-18,-128,7,-1,-2,-1,-1,-3
0,-112,-1,7,2,-1,-1,-1
2,-76,-16,-3,1,-1,0,-2
1,-88,68,12,0,-1,0,-1
0,-107,-55,-2,-1,1,0,2
-6,-48,23,-16,-5,-5,-5,-6
-6,20,3,0,0,-1,-3,1
6,93,-8,6,-1,-1,1,1
3,14,-13,-8,-2,0,1,3
4,28,27,3,-3,-3,-1,2
-4,-11,-17,-8,-4,-3,-1,-16
0,-17,16,-1,1,0,-2,3
1,-18,8,0,-2,1,-1,4
-4,-1,-17,0,-1,-1,-1,-3
-1,1,-32,-5,0,-2,-1,0
1,-1,-3,7,0,1,-1,-6
-7,-12,-7,-6,-3,-3,1,9
2,5,-5,0,0,-1,-3,-11
3,4,24,5,3,3,1,2
-9,11,-33,-17,-2,0,1,-2
2,-12,8,17,-2,-1,-2,-1
0,0,-9,-5,0,-2,-1,3
-1,25,29,4,-10,-5,-4,0
-4,-4,-33,-17,-6,-1,-2,-3
2,-11,19,12,11,-1,-4,-3
-3,-13,-27,-7,-24,-1,0,-4
1,40,15,4,-3,2,0,2
8,8,-15,-17,-4,-3,-2,2
-3,-9,13,1,-7,-4,-4,-4
-3,1,9,9,11,1,-1,-1
-1,-2,27,8,4,0,0,-1
-7,-3,22,16,2,-1,-2,-2
6,0,-5,-8,1,1,-1,-4
9,7,-7,-4,1,-3,-1,3
-14,-1,2,1,-5,-2,3,-9
0,0,-6,0,1,0,-1,4
2,-9,-4,0,-3,0,0,-2
-9,6,12,-1,-2,-2,-2,0
6,-7,-33,-15,1,1,-2,0
-3,-1,26,10,2,-1,-2,-5
-1,-4,2,-2,-2,-3,-1,1
0,-1,-9,2,0,-1,-3,-1
3,-3,-31,-9,2,-2,-3,4
-2,-1,23,2,-1,2,2,-3
3,0,11,-1,-1,1,-1,-3
-1,2,3,0,2,0,-1,1
-5,-5,-8,-2,-1,-3,-1,-1
3,4,-7,-5,0,-2,-1,0
0,-3,-23,-12,-4,0,1,-2
-3,1,27,24,3,-1,-1,-1
0,-3,-10,-6,-3,0,-2,0
-4,-3,-26,-7,-5,-3,-2,-2
-1,-4,3,0,2,3,1,0
-3,-3,-16,-2,1,-3,-2,-2
2,-13,8,5,-2,0,-1,2
-1,-6,9,-2,-7,-12,-17,-8
-1,-5,-7,0,2,2,-3,-6
0,18,3,1,2,-8,9,5
-3,10,14,-1,-8,-15,-11,-1
1,8,-10,-4,2,17,38,6
-2,3,17,3,-5,1,-3,0
-1,-6,-36,-13,-1,6,4,-4
0,-1,-9,-5,-1,-6,-4,-2
-1,-1,24,7,-1,-8,-14,-2
0,-1,-13,-6,-3,-2,1,0
