0,-2,5,2,0,0,1,-2
-2,-1,-16,-4,-1,-1,0,-3
-1,2,5,-3,-1,-1,0,-2
-1,0,-3,1,2,0,-3,-1
-1,0,0,0,-1,0,-3,1
1,-1,-5,-2,-1,-1,-1,-2
0,-3,6,-2,-2,0,-2,1
-1,-3,7,2,-2,-3,-1,0
-2,0,0,1,0,-3,-1,0
-1,-3,-4,-1,-1,0,-2,-1
-3,1,-1,-1,-2,1,-1,-1
-2,0,-5,-3,-4,0,0,-2
-1,-1,6,0,0,0,-1,-1
0,0,2,-2,0,-2,-1,0
-2,-1,-7,-1,-2,0,2,-1
-1,-1,-4,-1,-3,-1,1,0
-1,-4,-6,-5,1,-1,-2,0
-1,0,10,1,1,2,-1,-1
-2,-2,5,6,1,-1,-3,-1
0,-1,-7,2,0,0,0,0
0,-1,-4,0,-4,0,-1,-2
0,0,6,1,-2,-2,-2,0
-2,-2,-2,-3,1,-3,0,-1
-1,-2,0,-4,-3,-1,1,-1
-2,-2,-2,-3,-2,-2,-2,-4
-2,1,-4,-6,1,0,-1,-2
0,1,-2,-2,-2,-1,-2,-2
-1,-1,-8,-3,1,-1,0,1
0,-3,10,1,-1,-1,0,-1
-1,-1,0,1,-1,-1,-1,0
0,0,8,8,-3,1,2,-2
0,-3,-22,-5,1,0,1,-1
-2,-1,0,1,-1,0,0,0
-2,-3,-7,-3,-3,-1,-2,-2
1,-4,8,-4,2,-1,-2,-1
-3,0,1,-3,0,-2,-3,-1
-3,-8,-7,-3,-4,-1,-2,-2
0,3,5,1,2,-2,-1,0
-1,4,-10,-4,2,-1,-2,-1
-1,-1,14,4,-4,-1,0,-2
1,-1,-6,-3,0,-1,3,-1
-1,-2,3,1,-2,0,2,-2
0,-2,-5,-2,-4,-1,-2,0
-2,0,4,-3,1,-1,-2,-2
0,2,-14,3,2,1,1,-1
0,-1,-9,5,10,0,-1,-2
-4,-13,3,1,0,0,-1,-2
2,20,9,1,-2,-1,-4,-1
-1,-14,-1,-4,-5,-2,0,-1
-2,0,-4,-4,0,-3,1,-3
-3,-7,10,1,-5,0,1,-1
-1,3,1,6,1,0,-3,-2
1,0,4,-2,-4,0,-2,-2
-1,1,-5,-4,-3,-3,-2,-3
1,1,-5,-1,2,-4,-2,1
0,-1,-1,-6,-2,-4,-2,0
-2,13,-4,1,0,0,-1,-1
-1,-7,-1,0,0,1,1,1
-2,5,-11,-6,-1,-1,0,-2
-2,-10,4,4,4,-1,-1,0
3,2,-5,-5,-8,0,2,0
-4,-15,1,-4,-6,1,2,1
-1,0,-6,1,2,1,-4,-1
-2,-5,-5,-1,2,1,4,-1
-3,8,6,-12,-11,-3,0,-2
0,-10,-3,11,-2,-1,-2,1
-3,9,15,4,1,0,-1,-2
1,-3,-60,-13,0,-1,-3,-1
1,10,27,7,3,-1,-1,2
-1,-3,-29,-9,-3,0,-1,-1
-1,-4,22,-2,-1,-1,0,-1
0,-12,1,0,-1,-2,-2,-2
-1,5,-11,17,12,2,-2,-1
0,17,10,3,0,-1,-3,-2
0,3,-23,-2,-3,-1,-2,-3
-7,6,14,-7,-6,-3,-5,-17
0,-15,-37,-2,3,-2,-7,12
3,-4,-8,-3,-5,1,27,11
-5,-6,-1,-4,-2,-3,-4,-8
0,-12,41,8,0,3,1,3
-3,-6,-30,-17,1,-2,6,-6
-4,-2,22,15,4,-2,-9,-3
0,0,12,2,-2,-2,-3,0
-1,2,-9,-1,-8,-2,0,-1
-3,1,39,12,0,-2,-3,-5
-1,0,-9,-17,-2,1,-5,-3
0,-3,-5,-2,2,1,-1,2
-4,-2,2,4,0,-2,-5,-1
0,-5,-7,-6,-2,-2,0,0
-2,-3,12,-1,-2,-3,1,-5
-3,-4,4,-5,-5,-5,-8,0
2,0,-45,2,5,2,9,8
-1,-3,-1,0,-2,-6,-1,-5
-4,-2,-40,-16,-4,2,-9,-8
1,-10,-10,4,4,3,1,-1
-4,4,14,0,-2,-5,-12,-2
-3,4,-25,-11,-2,1,-1,-4
-6,1,30,7,-6,-3,-2,0
10,2,14,-4,-8,1,1,8
5,-26,-18,0,7,4,11,3
-6,-5,-2,8,-4,-3,-8,-11
6,-1,-21,4,9,2,2,7
-10,-2,4,-4,-7,-6,-7,-10
1,-13,-3,0,0,2,7,6
3,17,50,1,-4,-2,0,0
-6,25,-21,1,2,-3,-6,-5
2,16,-7,-4,1,0,0,-9
-6,11,3,-5,-9,-8,-21,-5
1,-24,-7,-1,7,8,20,17
6,-20,17,-14,-6,-2,11,4
2,11,-24,15,4,-1,-4,1
-8,2,11,-19,-6,-4,-12,-12
-5,35,12,7,-1,-4,-4,-7
-2,18,19,-17,-8,-4,-3,0
2,-7,-18,13,12,0,4,-2
5,-41,22,12,-4,-4,-13,-1
3,-36,-43,-11,-7,-4,-12,0
-10,-38,31,14,2,3,-15,-15
-5,-12,-10,-17,-7,-3,-12,4
5,39,14,-3,-7,0,23,1
3,-32,-3,-1,4,3,16,6
2,5,23,0,9,-2,13,2
-5,69,3,-2,-6,-2,-18,-10
-9,-56,-22,14,-6,-12,-8,1
7,-24,-19,-5,3,7,13,6
1,-4,-31,5,-9,-14,-11,-2
0,-18,16,9,-3,-8,-15,-3
6,67,31,-28,-5,-12,2,-10
14,-43,18,1,6,41,13,9
-25,-53,-41,-6,5,1,-5,-5
-1,31,-39,-20,3,7,28,-1
5,2,15,22,2,-6,-3,5
-23,33,5,0,-4,-2,-10,-10
10,0,37,-17,-10,-3,2,6
4,-6,-18,24,-10,0,8,7
-4,-72,-19,-6,17,7,-1,-2
-9,74,-21,-8,-30,-21,-23,-11
-9,27,-4,-2,10,6,-13,-11
6,-79,31,12,10,-11,-1,10
10,93,-59,-23,-21,14,4,11
-1,-38,36,23,-6,-8,-12,-9
-24,16,-29,-6,1,-11,-7,-13
30,-25,-41,-15,-8,2,-8,-3
-17,-90,4,-22,-9,-8,9,-10
19,65,-35,-22,13,6,-6,23
45,127,19,23,-8,-12,-7,-11
13,95,0,-14,0,-2,7,-1
31,-67,26,36,8,18,23,17
3,-5,-6,-32,-14,-12,-3,-20
-9,46,-17,2,14,9,0,10
-33,-81,19,2,9,-1,-11,-8
12,-13,-26,-9,-19,-1,-10,6
-38,-43,-16,-5,9,-2,12,-6
16,-49,9,-18,-5,-3,-1,4
-18,-1,47,19,12,10,7,-7
-31,29,18,12,16,0,-9,-14
13,-30,10,-6,-9,-18,-19,8
4,-32,7,9,9,13,21,11
6,-9,5,1,-17,-9,-6,-1
-5,1,-4,-2,4,0,3,-13
1,13,15,10,6,-1,-4,-4
6,-28,-4,0,-20,-8,8,12
-40,-5,23,-9,-1,3,-10,-3
16,33,-2,-14,-1,-3,-11,-2
4,0,6,13,8,-1,-6,-4
-2,-20,-14,-6,-13,6,16,16
30,-11,46,-3,1,2,7,10
-9,21,-15,-7,-5,-10,-12,-7
-14,-7,30,10,8,-1,8,-6
-22,-30,-46,27,11,-5,-15,-17
-22,3,-9,-25,-14,3,-3,-7
-1,5,19,-34,-14,-6,-11,-3
30,7,70,37,20,3,8,16
12,-13,-6,-10,-23,-10,-3,-4
4,-4,-9,6,9,4,33,5
-6,10,-13,-7,-8,-1,-23,-2
-30,-11,-60,-17,-8,-17,-43,-21
25,-12,-1,16,3,16,37,28
-14,1,6,-45,-10,-10,-3,-9
-13,-2,51,83,38,11,-9,18
36,-1,10,-10,-12,-6,13,-11
-10,-9,25,-13,-7,0,16,-4
18,-3,-20,-9,14,16,57,18
-34,2,-56,-14,-7,-17,-37,-15
10,-2,-1,19,17,-1,-27,7
-12,2,-15,7,24,-9,-28,-2
-16,-7,36,1,-42,-6,-18,-14
-12,1,19,7,-22,3,15,-13
-62,1,-18,-33,0,-3,-2,-19
64,-10,26,11,-21,6,16,3
-7,-3,-63,2,14,-10,-37,13
-4,1,-26,12,18,15,39,-17
27,2,-28,-9,-15,-15,-89,-9
-18,-5,15,-16,-1,-5,38,20
-21,0,-13,-16,-4,-4,1,-1
21,1,30,4,-22,7,34,16
-7,-3,-21,41,45,15,38,11
-49,1,4,-40,-4,5,5,-28
57,1,7,61,44,-3,-27,15
-6,6,-43,-74,-27,-10,-21,-7
-2,1,-37,7,-25,10,3,-22
-3,-3,48,-15,-8,-11,-4,7
8,1,-44,-13,-17,-17,-21,1
7,2,9,11,29,17,21,3
1,2,20,-37,-25,5,18,-16
1,-1,-20,30,36,-10,-14,22
-28,-2,3,-26,-25,14,104,-2
-22,0,-36,9,-1,-30,-88,-3
29,-5,75,21,-12,-12,-19,10
-73,-4,0,-1,19,6,-17,-41
6,-4,-20,-9,0,-11,-9,-6
65,-1,33,25,-20,-6,53,27
-25,-3,-9,-14,8,22,22,15
-45,-4,-27,-6,6,-7,-54,-20
31,2,8,24,-10,-7,30,14
-1,5,-3,-46,-4,-11,-21,-13
-55,0,14,8,-2,-8,-5,-26
-9,-3,-52,37,-31,-1,-11,-3
-108,0,6,-23,-5,3,-53,-18
71,-4,30,16,15,28,-17,-9
57,0,-6,-6,11,-21,31,35
7,-3,5,-5,-2,27,87,31
15,1,7,3,2,-16,-43,-32
69,3,-4,15,-16,2,64,40
3,0,19,26,47,19,-58,-18
-88,0,34,21,9,-9,-27,-31
114,3,-14,17,0,2,42,64
-122,-4,1,-8,14,-2,-4,-31
-30,-1,-17,-66,-48,5,60,32
14,-8,14,39,25,13,-22,-41
71,0,-18,-22,0,-1,-15,-8
14,-2,-29,-29,8,-1,9,14
-85,-1,41,71,-1,13,30,-6
84,-1,9,-18,-11,1,2,14
2,-3,18,9,19,-3,9,23
-1,7,26,9,10,7,16,17
17,-7,-5,6,9,-3,31,31
-56,-1,-4,15,-8,13,-17,-61
7,5,2,-42,-6,10,41,4
31,-8,-36,-2,-24,-41,-75,-15
22,-2,11,17,25,-4,32,25
-6,8,3,3,-2,20,27,-24
-53,-1,-37,-36,-12,-32,-71,-13
-46,0,7,59,57,63,81,23
0,6,-24,-43,-23,-12,3,3
17,-1,-10,5,-20,-35,-13,24
34,7,0,45,7,-1,-89,-34
-84,-7,3,19,4,22,67,-28
127,7,-42,-31,-25,-25,-64,5
66,3,10,-51,-10,-4,81,62
-62,7,29,46,22,56,38,-41
-75,-5,-15,-31,1,-3,61,30
-69,6,-27,-24,-51,0,-41,-63
37,-14,21,39,12,-19,-11,57
15,-1,-16,-44,-54,12,68,-40
82,11,14,-8,8,-33,-78,51
-29,3,-32,-62,-31,-7,-37,-20
0,-4,14,-1,18,14,95,33
-119,-1,13,40,11,17,23,-29
59,-2,35,18,3,3,-73,-80
-27,4,-17,-39,-14,-19,-31,-33
-54,4,-6,-8,-6,5,51,14
-6,-11,1,35,23,-2,-59,39
4,4,-42,-49,-24,11,127,27
11,-3,-9,-54,-4,-67,-57,-77
-26,-3,-1,45,9,10,0,-26
-49,-10,34,48,62,15,-20,56
9,11,22,7,-4,30,12,54
-57,-4,-7,-28,9,-2,-2,-53
15,1,0,-25,-33,1,-63,-115
88,4,-19,-12,18,-14,55,56
-83,-6,0,17,-3,11,-5,-37
23,-7,39,95,71,-14,39,115
-27,0,-47,-75,-34,-18,-42,-6
-27,-4,10,-10,-13,-13,-69,-52
-16,-5,5,10,-6,-24,-91,-120
58,-5,2,-25,-2,40,125,127
-60,3,32,73,37,-1,-8,1
98,9,-2,6,-14,-23,23,19
-94,-2,-33,-38,-23,21,0,-105
-9,-5,-6,-30,10,-25,-19,33
126,7,32,64,31,19,-19,58
-87,-1,-20,-24,-15,-16,10,-54
-43,-5,14,-14,-35,-37,-53,2
-47,4,-1,58,2,31,41,-94
-3,0,-36,-79,27,-16,-25,74
39,4,16,52,-14,26,53,43
-45,1,9,14,16,-23,-65,35
5,3,-9,7,-21,1,4,-19
6,-5,-34,-50,-41,-30,-128,-122
-88,-7,53,36,-12,-20,127,41
127,3,-47,-37,-26,-15,-17,34
4,-4,33,6,32,22,53,68
56,4,-45,-80,-83,-13,95,-33
-66,-13,-6,-58,35,-1,-50,-16
30,-5,27,40,-1,3,127,42
49,-4,8,28,4,-3,-65,-13
-103,0,24,12,24,18,37,25
61,1,-15,43,-24,-18,-105,-92
75,-5,-18,-41,15,-49,31,121
-81,-3,37,63,10,51,31,-34
55,-12,20,54,68,16,31,53
90,7,-38,-67,-51,-13,25,-11
-80,-3,49,32,28,24,-20,-60
-47,6,-2,26,9,-9,-46,-20
-62,-3,-12,-7,-18,-25,-10,4
-17,-1,15,5,7,17,-11,16
-21,1,-28,-18,3,3,-9,-38
7,0,10,-6,-21,8,85,78
21,-3,-28,-28,-18,17,47,-62
35,5,-8,3,33,-18,-75,-24
-128,-3,3,-26,-39,-37,-80,47
42,-13,6,-20,-8,1,5,8
-11,-1,-7,-61,27,24,36,-14
-35,0,-1,28,6,-1,-18,-1
-6,0,32,29,-11,5,-22,-33
52,7,7,36,8,4,58,70
0,-2,2,10,-5,-27,-4,30
-118,-6,-14,-62,-26,13,50,-56
39,-12,-23,-6,16,-8,-85,-50
106,1,-21,-14,-21,-5,11,-32
-32,8,-4,0,-36,10,32,-4
32,0,0,-20,32,50,91,109
-49,-1,-21,-7,-11,-34,-36,64
-43,3,28,40,-2,-3,63,-18
-32,1,-3,9,35,18,-65,-66
10,-6,4,9,-23,-11,40,18
-30,3,-4,-11,7,29,-25,-101
74,-1,-50,-88,-46,5,38,65
-51,1,20,81,67,5,2,41
14,-3,10,32,-34,-28,-102,-5
-19,5,18,30,23,14,48,-24
-57,-5,-16,-60,-33,-43,-128,-58
-27,-8,28,-16,-6,1,-16,-31
1,-1,-47,-20,-12,-26,-3,19
46,-8,11,-27,-16,-14,52,22
-39,5,12,28,17,-8,-56,-5
53,-4,-8,-16,-25,-22,-11,16
-54,-5,-6,5,14,8,10,-44
40,0,-27,-42,-21,21,-1,-18
-128,-9,-30,-58,5,18,-33,-124
104,-2,23,50,5,-22,-42,113
34,-4,23,-25,6,7,105,80
-18,-3,-19,27,12,10,5,-24
-39,-4,8,15,8,12,28,-57
33,7,-28,17,-2,12,-31,-1
2,-5,-16,-75,-4,18,20,0
50,4,5,31,20,-6,24,24
-2,-4,-46,-15,11,-29,-81,21
-26,-1,44,27,6,33,57,-71
-3,-1,17,21,10,-3,-25,48
18,7,25,-18,-7,7,37,30
-14,-9,-18,-10,-5,3,14,-15
-77,6,-24,-23,-26,39,18,-83
89,-6,34,28,14,1,67,68
-15,3,9,21,3,-2,64,18
27,0,20,31,10,20,39,7
-100,2,-14,-33,-8,-27,-69,-80
-13,-7,-36,-58,-6,-8,-72,-6
42,2,28,99,36,6,-3,32
-62,-11,21,2,-27,16,-22,-1
61,-10,-7,3,17,0,35,87
-40,1,-26,-7,-7,-1,-27,-97
7,5,0,9,6,-13,-23,-12
-14,0,-31,-63,-23,-3,16,-8
-37,-5,12,54,8,-13,-41,-29
40,3,18,17,-1,-6,4,1
21,-9,-18,-57,-27,4,52,3
-12,8,20,59,7,-21,-85,-88
81,4,16,-22,-12,-21,-15,115
5,-1,1,27,15,-2,25,28
-42,-1,-12,-17,-8,0,-19,-15
34,-3,2,11,9,10,66,26
-5,-3,-11,-25,-28,-30,-54,-11
-46,-1,0,5,-3,-3,-52,-78
24,3,24,-1,18,0,-9,10
-10,3,10,64,-10,22,28,21
39,-5,-12,-34,-35,-29,26,45
-24,2,-11,-2,-14,-23,-87,-28
-17,-3,-27,9,6,-12,-28,-20
32,0,6,-19,4,-7,15,17
-25,3,-15,-24,-12,4,-11,-30
-3,-1,0,11,3,14,30,-21
-5,-3,-13,-33,-10,-5,6,15
22,5,3,21,10,-3,-16,5
5,2,-6,-3,-7,1,19,6
-8,-2,-4,-2,3,-6,-13,-10
-6,-3,5,-7,-6,2,3,0
16,-1,5,-6,7,-3,13,16
2,1,-3,-3,0,-1,-1,-11
-12,2,-9,3,-1,2,9,-7
13,0,24,5,-3,2,6,3
3,-8,-33,-10,2,0,3,13
4,4,25,5,0,-3,5,4
-14,-1,19,1,-4,2,-1,-6
0,-2,-1,1,-3,4,4,1
10,-2,-23,7,8,-11,-11,7
-1,1,-22,-17,1,4,7,-5
-8,-6,45,-6,-7,2,8,7
3,2,-27,6,-1,2,-10,1
11,5,41,8,1,-2,-2,10
-15,2,-33,-8,-1,-1,-1,-7
12,9,3,-3,-1,-1,-3,10
-3,9,-21,-4,-3,-6,-3,-15
