-1,-1,-1,-3,2,0,1,-1
-2,0,4,2,-1,-3,-1,-3
-2,-3,-8,-2,-1,0,1,-1
-4,-2,1,0,-4,0,-3,0
-2,0,2,-2,0,2,0,1
0,-1,-3,-2,0,0,-1,0
2,-1,5,-3,-2,-3,0,0
-1,-1,1,0,0,-2,0,-1
-2,-2,1,4,1,0,-3,-1
-2,0,-1,0,-1,-2,0,-2
-1,-2,-6,-2,-1,-2,-1,-2
0,-2,8,0,0,-2,-2,-3
-1,0,-1,-2,-2,-3,-2,-1
0,-2,-6,-4,-4,-2,-1,0
-2,0,-3,-1,0,-1,0,-2
-2,-1,-5,-1,0,-2,1,0
-1,1,-2,0,-1,-2,-3,-2
0,-1,4,2,2,2,0,0
0,-1,0,-1,-1,-2,1,0
-1,-1,-7,-2,0,0,0,-1
-2,-1,1,-2,0,0,0,-2
-2,-2,-2,-3,-2,-3,0,0
-2,-1,5,0,-3,-2,0,-3
-1,0,2,0,0,-1,-1,2
-1,-1,-6,-3,-1,-1,-3,-1
-1,-2,0,-2,0,-2,-3,-2
-2,0,-3,-2,-3,-2,0,-1
0,-1,-3,0,-3,-4,1,-1
-1,0,-1,1,4,4,1,0
-2,0,0,0,-1,-1,-2,0
0,-1,2,2,0,-1,-3,-2
-1,1,-2,2,-1,0,-2,0
0,-2,-9,-6,-2,-3,0,-2
-3,0,-2,-1,0,-2,0,-1
-2,0,-1,-1,-3,-4,0,-1
-2,-2,-1,-1,-2,-1,0,0
-1,-1,12,3,-3,-1,-2,-1
1,-2,6,-1,-2,-3,-3,-1
-1,-2,-4,-4,-2,-1,-2,0
0,-1,0,0,0,0,0,-1
-2,-1,-6,-1,-2,-2,-2,-1
-1,0,-1,2,-2,-2,-1,-2
-1,0,2,2,-1,-1,-2,-1
0,-1,-2,-2,0,2,-2,-3
0,-1,-1,-1,1,-2,2,-1
-3,0,-5,-3,-2,-3,0,-1
-2,0,-2,1,2,3,0,2
0,-1,-4,-5,-2,0,-1,-3
-1,-1,5,1,-1,-2,-1,-1
1,1,-1,-2,0,1,-1,-2
1,0,2,-1,-2,-4,-1,-1
-1,0,-2,0,0,-1,-1,0
1,-1,-3,-1,-2,-3,1,0
-2,-1,-3,1,-1,1,0,-1
-1,-1,9,0,1,2,0,-1
0,-1,-5,-2,-3,-1,-2,0
-1,-2,-8,-4,-2,0,-1,1
-2,2,-2,1,2,1,-1,1
-1,0,0,0,0,-1,0,-1
0,0,5,0,1,-2,-1,-5
-4,-2,-7,0,-1,-1,-3,-7
1,0,5,-1,-3,-2,0,8
-1,0,-2,0,1,2,-1,-1
-1,-1,3,3,0,-1,-5,4
10,5,0,-7,3,2,6,-5
-8,-4,-8,-3,-3,-2,0,-2
3,0,-5,2,0,1,-1,3
-15,-2,-4,-3,-2,-1,2,-3
-2,0,6,1,-3,-5,-14,-4
-4,0,0,-3,-1,0,0,-3
6,1,3,-4,-2,4,4,6
3,1,-7,2,7,1,10,5
-6,-4,-7,-7,-1,-5,-59,-8
11,3,-2,0,2,2,73,6
-14,-5,17,5,-1,-4,5,-3
9,3,11,4,0,2,8,2
1,-6,-26,-6,-7,-1,29,8
-3,0,5,6,-4,-6,-34,-11
11,2,-35,-13,-1,-3,-10,1
-7,-4,16,0,-3,-3,-12,-11
5,5,5,-6,-6,-2,-36,3
-7,-4,1,6,6,-10,-24,-3
-4,-1,-1,2,2,14,40,2
5,-5,-15,-9,-1,-1,-9,0
2,1,2,0,3,6,17,11
5,-5,0,-6,-4,-16,-16,-2
-8,-3,12,9,-3,7,5,-3
38,6,1,-6,-6,-3,-35,-4
-28,-2,1,0,0,4,61,-1
-27,-4,-1,-4,-5,1,27,4
-8,-6,-8,-10,-2,-6,-9,0
-14,1,7,0,-4,-6,-19,-7
1,3,-1,6,4,5,18,-2
5,4,-7,-9,-4,0,-17,-8
-11,7,1,-1,-6,-15,-42,-7
-1,3,0,-1,-1,0,53,12
10,-5,0,-1,-5,1,-18,-11
-6,-7,-10,-6,-1,-7,-12,-9
14,-2,3,3,2,3,-12,7
-8,-10,-12,-2,-1,-4,-37,-15
26,-1,18,2,-3,-17,37,24
-9,-5,-12,-3,-3,17,-4,-19
-11,-2,18,6,0,6,-15,-13
-14,-5,-61,-9,0,-1,37,-5
-34,-4,8,-5,-3,-5,-21,5
27,1,2,2,-2,6,-34,18
9,0,-3,-2,1,-2,19,2
8,1,13,4,0,-3,10,10
13,0,-5,3,-2,6,3,1
-20,2,0,2,1,5,0,-14
-15,0,-6,-5,-2,-24,-41,-18
7,-1,12,5,1,5,-18,3
-8,-7,-7,-12,-7,-7,-25,-17
26,2,10,4,1,-18,-20,22
13,-2,-10,2,2,14,80,5
-31,-8,-1,0,0,6,-25,-3
7,-2,-3,-5,-1,-1,-8,-5
-13,-1,6,-1,0,4,0,-20
5,-1,-14,-8,-5,-11,0,19
2,8,41,10,2,-15,-5,-19
-10,-1,-17,10,5,23,-3,-2
17,5,-3,-8,0,-11,-12,-13
16,-1,-1,-1,0,13,-23,10
12,2,-16,-12,-10,-16,-18,49
-47,-7,17,8,0,-13,-1,-57
-9,-4,5,5,-1,7,28,26
-4,-1,9,8,-3,-31,-87,-67
8,8,5,-4,5,25,92,12
10,14,5,4,0,-9,17,9
61,3,2,-1,-3,2,-2,81
-44,-4,-3,-6,-6,5,-69,-89
-20,-18,-51,-11,-3,11,18,34
2,-20,-12,-7,-4,-8,-60,15
-15,-18,-7,1,0,32,47,-47
15,-6,13,1,2,-3,28,81
70,-8,8,-1,-5,-32,-16,19
-48,-3,7,-5,-6,-9,-62,-47
-21,4,-1,-3,-4,-30,-23,-43
34,-3,-26,-7,-6,9,0,28
-53,7,1,0,1,6,-13,-75
6,5,-7,1,2,-44,56,45
26,-2,11,-2,-3,-1,4,21
-38,2,-4,-2,0,-5,27,-41
-19,4,4,-4,-11,-25,-14,-69
69,4,-30,-9,1,33,-11,56
-36,4,7,5,3,27,6,-20
86,12,-7,-4,0,-9,-52,98
-97,-9,12,9,3,12,17,-101
42,10,14,12,5,52,42,-11
22,12,-10,-4,4,20,108,23
23,-3,-6,-1,7,50,63,54
63,3,10,5,2,25,-11,56
-19,1,-2,-3,-5,-14,28,-15
-8,-3,-2,4,8,-9,-39,-51
-40,-7,9,-4,-4,10,-1,-2
43,0,-1,-6,0,-12,23,57
-13,-8,1,-3,1,-10,-8,-32
50,1,0,2,1,-4,-30,-16
-58,-1,7,3,1,-21,25,-21
-20,-2,-6,-5,-7,-17,-35,8
81,17,-1,-2,5,14,-5,4
17,-3,-8,-3,-17,-13,-55,36
46,-1,5,6,-4,-8,92,-53
-75,-1,7,-2,-3,-10,-6,74
33,25,5,-4,-6,-63,43,29
-77,-6,9,-4,4,8,-40,59
5,-9,-7,-16,-11,-7,3,-73
-19,-8,-11,-3,6,26,-1,21
-10,-17,12,-5,1,-2,50,89
-26,-8,-27,-24,-5,-33,-14,29
-15,-6,17,14,11,-25,-43,-16
65,6,2,-8,-16,-58,-33,-47
27,3,-7,4,9,61,28,-40
45,-4,-18,-4,-16,-78,20,9
-2,4,13,11,17,100,-58,53
6,-8,3,-3,-9,-45,-16,-3
-108,-12,0,16,4,-7,-14,-79
-53,23,12,0,5,59,-11,-128
-3,-6,7,-2,-5,-80,-10,-63
105,-12,-64,-23,-5,-28,-43,48
-69,-5,21,4,10,-1,26,-70
35,-6,6,12,16,12,-12,-58
-30,-3,-3,3,-10,36,79,60
67,25,22,5,21,127,66,54
-37,-20,-33,-19,-24,-96,-13,-39
87,0,-4,-3,-19,-23,-69,79
-13,9,5,9,12,-11,1,-86
31,-5,-7,-1,-1,37,-5,62
99,25,11,11,16,91,-10,-27
-61,-34,-9,-5,-13,-50,10,36
105,-7,-9,-5,2,28,19,116
15,28,22,13,8,35,29,31
39,-8,-6,-4,1,-50,-54,-56
-73,-13,-8,-3,-13,32,47,70
6,3,0,-11,-14,-90,-6,-62
-91,-34,-12,16,19,71,30,-118
14,0,13,9,0,-26,17,111
47,12,0,-3,-5,-11,80,3
-23,4,-6,-10,-6,-114,-79,-2
29,12,16,0,1,-1,56,-2
40,-43,-29,-23,-18,23,-44,6
19,-30,15,-2,-5,-3,43,-29
8,85,36,1,4,86,7,-14
-62,18,-12,5,7,-44,-47,16
19,-45,-3,4,-7,-31,35,70
-96,-33,5,-1,10,-33,-44,-28
-88,-36,-26,-19,-40,-39,49,101
31,-32,5,3,-10,-73,-26,-108
-28,43,-13,-9,-8,16,51,53
127,48,3,15,15,40,45,43
40,47,11,6,20,117,61,69
-82,22,-18,-10,0,-13,-21,-19
4,-96,22,4,-9,-35,-52,-86
-10,-53,-10,5,-1,-16,16,-45
12,-79,-3,0,-2,-23,-49,8
-26,32,35,28,19,57,40,-58
-59,-2,40,1,-11,-88,-23,-71
-50,-16,-43,-14,-4,61,-51,-103
-25,5,-18,-1,11,40,-27,-113
-3,-26,-32,-16,-24,-30,87,59
-125,-23,17,4,4,-19,-6,-38
-17,22,-34,-10,-1,0,64,-45
80,48,0,7,2,28,-18,-4
-35,-72,17,-17,-20,-119,-13,27
34,8,-27,3,25,127,16,81
71,84,19,-19,-19,-86,-36,36
37,-8,-13,6,19,29,35,31
17,50,8,-11,-9,32,-22,-49
82,28,41,23,17,87,60,111
-118,-80,-56,-15,-13,-66,-34,26
-32,-4,26,11,11,12,-64,-8
-31,-58,-16,-5,-11,-38,-9,30
-25,4,4,-2,-2,-15,82,-20
107,-22,-2,-3,-10,-29,-34,-75
-84,-36,2,-1,-7,-17,75,21
-13,-102,-32,-9,-13,-37,-10,-46
-86,55,-30,-2,-2,-7,-59,21
-4,-22,30,4,-12,-27,15,-62
-1,38,-17,-15,-25,-114,-49,14
-68,28,36,1,-2,93,0,48
25,-3,-16,-6,17,81,-74,-12
15,67,27,10,-5,-9,46,76
-34,-85,-55,-16,-21,-21,-20,-16
87,36,66,16,17,17,-101,-91
-57,-10,-29,-16,-7,0,-24,48
-55,-49,8,8,17,1,51,-53
61,102,23,4,-2,-37,74,-14
5,-2,12,12,7,-67,27,-9
37,58,-29,-14,-26,-69,-80,-3
-8,-69,8,3,31,63,-19,-46
6,38,6,6,2,-73,-24,-109
-51,-43,-2,6,5,59,46,-52
83,94,8,-1,13,30,-84,-36
48,84,-10,2,0,112,11,127
22,3,14,11,19,43,14,-112
57,111,-16,11,36,117,-27,11
51,-89,33,9,6,-27,59,25
68,84,-11,21,30,66,11,28
63,62,47,28,35,95,-40,-50
-44,-30,-41,-25,-22,-12,78,12
-44,-7,-11,7,2,54,32,-77
3,36,15,-1,11,75,-33,7
-10,-90,6,-5,-33,-90,-8,-39
12,-55,-34,-13,-16,-63,-27,3
6,61,13,-2,6,-14,31,-9
-48,-38,15,2,-3,-18,-9,-9
-32,-5,-33,-16,-13,-13,-35,26
27,2,6,6,4,3,7,-5
22,4,-6,11,11,-32,71,50
30,22,21,2,-4,-23,-19,-22
-28,-47,-8,6,30,119,50,7
-41,19,5,-14,-21,-104,-67,33
-56,9,2,0,-21,-81,-88,-120
-55,80,-5,9,21,67,2,66
-55,-60,-27,-23,-17,-66,-59,72
53,-96,0,4,-11,-76,-3,11
-4,-20,5,-10,-14,-28,-34,-20
-4,-26,19,-10,-30,-46,-18,-62
51,44,-54,-16,-2,12,-81,63
35,-16,3,-2,5,7,15,-35
74,-23,4,4,6,3,43,14
-70,-128,17,0,-4,8,11,-19
0,33,-24,-3,1,57,36,18
-37,-30,3,7,5,-20,-86,-54
29,60,18,10,9,96,25,15
31,-42,-7,-9,-1,2,-30,12
-12,-75,4,-4,-34,-87,-11,-16
-35,9,-10,-6,5,-6,-13,12
-34,-77,-14,-11,-25,-80,13,-38
-21,44,11,10,2,-84,-13,6
-108,52,-7,-26,-1,35,-43,-6
72,59,-29,-3,5,16,35,1
-2,13,-15,-12,-19,-68,-60,-84
-22,-56,-8,-5,-23,-128,-27,39
97,67,8,12,14,72,23,-73
-26,-8,18,7,-3,7,-2,13
-13,15,-9,-10,4,16,24,28
2,43,-28,-10,-14,-17,-12,-32
-15,-47,4,0,14,38,-16,-37
62,-10,5,-1,-9,-21,-27,26
-64,-25,-2,-9,-15,6,-16,60
-34,-8,22,14,14,-7,-69,-98
108,48,12,1,2,23,111,-15
-6,-68,4,1,29,127,106,1
21,-44,7,5,-11,-102,2,19
34,-21,-28,-6,-3,13,-12,71
25,3,8,0,2,-20,12,24
-34,0,6,5,-4,-15,-15,-25
10,49,13,1,4,41,-24,16
12,95,2,9,9,25,72,-128
36,-16,3,-1,12,-41,5,71
-63,-10,-1,17,5,41,5,7
-4,-26,-2,-4,-10,-87,-23,15
19,-26,-29,9,20,23,10,5
-44,-11,-3,-11,-11,-30,-4,78
61,50,9,-12,-21,-108,-105,1
-77,-68,-41,-3,9,27,67,52
8,-74,-5,-7,-4,-51,-17,-16
-31,-9,18,1,-17,-40,13,-26
-16,-1,-12,-1,3,-54,-70,-34
25,26,0,-5,12,66,24,-99
21,-7,0,-15,-17,-35,-17,41
-37,-49,2,3,8,12,-34,15
28,104,19,-2,-1,12,104,3
15,-12,-3,-3,2,0,-49,-40
-2,-11,0,-8,-4,40,44,21
11,-88,-7,24,7,-52,-32,-50
20,61,26,4,6,-11,-19,-1
18,13,2,3,1,9,68,27
-11,-33,39,11,2,16,51,4
-36,-112,-37,-10,-16,-70,-19,-70
66,-58,-23,-7,-17,13,-13,66
-45,-56,-5,-2,9,14,28,5
-2,-17,-16,2,4,-3,-26,-9
-12,36,-21,0,3,21,29,-34
-13,-93,-5,-5,-5,0,-5,-15
31,-40,16,-3,-5,1,-32,-5
8,22,5,5,-4,-10,-18,6
-16,56,21,-2,-4,0,2,3
-19,84,-16,-6,0,16,7,-15
8,67,16,6,-2,-5,-32,9
-12,69,-11,-10,-3,-1,-2,-11
5,86,12,3,2,6,-9,12
-5,70,10,2,0,-7,-5,-5
7,17,-3,-3,-4,2,2,-18
4,42,8,-3,-1,-18,-6,3
7,31,-20,-4,2,-4,-6,3
-3,12,-35,-10,-2,6,1,0
-4,24,-16,-1,-3,6,-10,-5
-3,28,21,3,7,41,-2,-6
-4,8,9,-5,-4,0,-3,11
-11,-12,-11,0,-1,6,9,-8
6,34,0,4,-2,1,-13,0
1,3,-4,-4,-6,-1,-7,-3
-1,-38,21,6,1,-1,10,-8
-3,-17,16,5,3,-8,2,-2
4,-17,-6,4,-3,-23,-8,-7
-2,-24,-15,-7,-1,-10,-3,-3
-3,-25,-18,-6,-2,2,0,0
-4,-22,-4,5,9,18,4,-2
1,-56,8,-4,-5,1,-9,4
-4,-58,-9,3,12,2,0,-2
1,-36,4,-2,1,8,-2,2
-2,-17,5,10,-7,13,0,-3
1,37,1,3,0,7,-1,-6
0,69,5,1,-13,0,-6,-1
0,49,-2,4,2,6,-2,-1
-3,60,-4,-12,-8,3,-2,-5
-4,35,1,-2,7,0,-4,1
-3,68,-4,-14,-7,-6,-6,-4
0,-105,-39,-5,-2,-2,-1,0
-2,-52,17,0,-3,-2,2,-3
3,-21,-6,-3,-2,-4,-3,-4
-12,-14,9,-25,-10,-5,-1,-4
-2,1,5,5,-2,3,-1,0
-1,13,-1,10,6,0,-5,-2
1,49,5,0,3,-6,-7,3
4,86,-15,-36,-33,-8,-5,-1
6,123,28,52,24,9,2,1
-6,23,-42,-41,-12,1,-2,-2
3,97,26,65,38,9,4,0
0,90,4,20,3,-2,-3,1
-7,35,-9,-73,-24,-10,-9,-5
2,37,41,4,-22,7,1,2
-2,-128,-14,25,13,0,0,-2
-2,-128,-6,-27,1,2,0,2
2,-128,4,49,4,3,4,3
-2,-107,32,5,11,1,0,-3
-2,-96,-24,-29,-28,-4,0,-1
0,-128,6,11,11,-4,0,-2
-2,-66,2,-20,-12,-4,-3,-3
-1,-58,-2,3,1,-6,-2,-1
-2,-36,-3,-17,-4,-1,-3,-1
1,-37,1,6,8,-1,-1,1
-2,-6,-1,-10,-1,-4,-3,-1
1,8,-9,1,-1,2,1,0
1,22,0,-1,-1,-1,-1,-2
1,25,-1,12,2,-2,0,-3
-1,15,10,-2,-1,-3,0,-2
-3,4,-10,-37,-8,-4,-4,-5
4,18,-6,11,-8,7,1,2
3,15,16,16,8,0,-1,-1
-1,24,-18,-2,2,-1,1,-1
0,17,5,16,1,-2,-1,0
