2,19,-9,-10,-5,-2,-1,-1
-7,-12,-1,0,2,0,0,-1
-1,-2,-5,-2,0,-2,-4,-1
-2,-9,3,1,0,-1,-2,-1
-3,-7,-15,-4,-1,-1,-6,-1
2,-20,-16,-1,-3,-1,9,0
0,10,10,1,0,-1,1,-2
-4,-31,6,4,4,1,-3,0
0,7,1,0,-3,-1,0,2
-1,4,8,2,1,2,-4,-1
-2,5,1,-7,-3,-1,-2,-4
-3,-10,-1,3,-3,-4,-1,-2
-1,-6,-35,-11,0,0,-1,1
1,8,1,-3,-5,-2,-4,0
1,7,-2,5,0,0,1,0
-1,-2,-9,-1,-1,-1,0,-1
2,1,41,11,1,0,1,-1
-2,9,-25,-7,1,-1,0,0
-1,-5,-7,-4,-1,-2,0,-2
0,4,-5,-5,-3,-4,-2,0
0,-5,-7,-1,-2,-2,-1,-1
0,-13,-1,-1,-3,-1,-2,0
-3,-6,12,0,-1,-1,1,-1
-2,14,-1,-1,-1,0,1,-2
-2,-2,-6,0,0,1,0,-2
-1,4,15,1,3,1,-1,-2
1,-16,-10,-6,-3,-2,-2,1
-4,3,0,-1,-2,0,-1,-3
-1,-3,-5,0,-1,0,2,0
-1,-11,-2,0,1,0,-4,-3
0,11,9,4,2,1,1,-2
1,-6,13,-6,-8,0,0,1
3,3,5,11,9,-1,2,0
-4,-6,-6,0,0,-2,-2,-1
0,4,0,0,-1,-1,-4,-3
1,-10,-5,-1,-2,0,2,0
-2,-1,-9,-10,-2,1,-2,0
4,42,29,6,3,-2,-2,1
-3,-4,-11,-9,-6,-6,-8,-3
-2,0,3,7,6,-1,-5,-4
2,-3,-27,-10,1,-1,-1,1
-4,-11,18,8,-9,-2,2,-2
0,-18,0,-5,1,0,1,1
1,8,4,13,2,-1,8,0
-17,-11,-12,-4,-6,-3,-8,-11
3,-3,-1,-4,-1,-3,-2,2
8,26,-5,-8,-4,2,8,8
0,-32,-12,-4,-2,-4,5,3
2,16,-4,-7,-4,-2,-1,-2
-7,18,34,11,0,-7,-13,-7
0,-3,-1,-2,-7,5,2,-3
0,-16,-5,7,14,2,0,-1
-1,-38,-4,3,-4,-2,-5,-2
-7,-17,-25,-7,0,0,-2,-2
9,-15,-9,-7,-7,-6,-11,-6
8,16,29,10,-2,4,-1,3
0,11,-15,-11,1,-3,7,3
10,-26,-15,-19,-6,-2,-6,4
-6,-1,2,0,5,-1,3,1
-5,-15,-18,-15,-7,-4,-2,-4
11,22,13,2,-3,-1,-2,4
-6,35,6,19,7,4,7,-3
-14,58,4,10,4,2,-18,-4
7,-6,-28,-23,-5,-2,36,9
-4,-3,23,26,1,2,11,-1
2,-9,-13,-29,-15,-4,3,-1
3,-25,0,17,19,-1,-3,-5
3,6,0,11,0,5,-14,0
-6,-4,14,-7,0,0,-5,-5
-1,-21,0,-2,-3,-5,-9,-3
-12,-21,-33,-4,4,-1,6,2
-19,20,16,-8,-17,-4,5,-8
20,8,9,11,7,2,6,10
-10,-9,0,-8,-1,-5,-21,-9
2,1,1,1,-4,7,14,8
6,-20,33,10,5,-3,-17,4
-14,-16,-67,-28,-4,-1,16,-4
-13,2,39,19,-6,-1,20,-6
11,3,-12,-19,-3,-10,-44,-7
6,-7,12,18,4,2,8,1
0,-3,37,16,4,-1,-3,-2
9,6,-75,-21,-1,-3,-21,4
-10,19,51,-24,-10,-3,8,-11
10,24,-25,-17,-1,2,-6,0
-6,-10,14,18,1,0,-8,-1
-12,-18,-50,-3,-4,2,16,-2
0,1,19,-12,-13,-7,-6,1
-17,-17,-10,8,3,-3,-23,-9
12,5,-6,-1,7,0,-2,1
9,39,35,3,17,15,31,18
-19,-28,-68,8,-4,-7,-13,-7
5,-12,23,-7,-4,-3,-17,1
-17,-35,-11,-2,-15,6,24,-8
19,67,29,-7,5,-3,-29,-2
3,-22,-24,18,18,-2,-11,7
10,13,-19,4,5,2,28,5
-8,-51,36,-4,-6,-7,-3,0
0,-9,12,0,-8,-7,-12,-6
-4,-38,43,4,-24,5,23,2
-6,52,-84,2,-5,-3,-4,-9
-1,31,50,-32,-1,1,-13,-8
-3,25,22,26,-8,3,-19,5
22,-59,31,33,27,4,32,8
-13,68,34,-8,-2,8,8,-5
5,-2,-25,6,-7,-19,-42,3
-14,-43,14,-9,0,-2,-5,-9
-5,18,-17,-10,-2,-7,-4,0
25,-20,-22,-3,1,7,6,10
-32,31,10,-3,-4,6,2,-12
4,-8,11,3,-5,-2,26,-6
9,47,-59,-36,6,-5,-7,-4
-1,13,17,-24,-26,0,23,5
14,39,69,69,17,4,-32,7
8,-8,-31,5,2,1,-17,6
-5,56,15,3,1,-4,9,-16
-23,-15,-5,-25,7,-12,3,-5
3,-21,-2,16,7,6,6,1
-15,-79,-17,-8,-5,0,17,4
-18,-4,19,25,2,0,-10,-2
34,-72,3,-30,-29,-7,-13,-1
16,-44,16,6,1,0,-8,-9
23,2,-10,-4,11,-8,-7,7
-27,-4,19,-4,-13,2,-2,-10
-36,-50,-45,-37,-12,-13,10,-16
-9,72,-20,7,8,9,15,4
18,93,8,-22,-28,2,6,4
11,66,16,0,17,0,2,5
8,28,19,40,-21,9,47,32
3,26,-2,2,10,-7,-38,-11
-43,-7,-46,-36,12,2,16,-5
-11,1,30,15,-16,-1,-4,3
21,-25,22,11,-3,-15,-41,-10
38,-56,-34,-63,4,-5,15,21
2,-28,62,94,25,9,12,-13
6,-34,-90,-55,-10,5,-10,2
-16,-11,95,34,17,9,47,-8
-6,-13,-96,-53,-29,-17,-56,-3
-20,2,43,4,15,-7,-43,-11
11,-29,31,0,1,5,15,4
-6,36,-27,18,5,3,-25,7
-35,6,13,2,-9,-2,13,-11
-44,-29,-17,-49,-16,4,36,-11
51,-7,-31,34,3,4,25,30
-9,3,79,-7,6,-3,-27,-5
-34,-4,-36,4,0,1,5,-12
3,-29,29,38,8,-3,3,-18
-18,12,19,-71,9,-8,-76,-2
4,1,22,88,41,6,9,18
-12,-7,-78,-6,-4,12,43,9
-2,-1,28,-7,6,6,-16,-8
-27,-3,-12,0,-21,-21,-38,-41
21,11,-62,-30,24,12,56,39
0,1,71,11,-12,-10,-1,-28
-8,-16,-53,-24,-15,1,-13,4
-65,-1,33,12,-3,-9,-21,-13
90,-32,-16,-27,-22,-21,-58,4
-36,9,-11,-33,0,3,29,-20
21,8,2,-11,-16,4,34,8
58,-14,-29,33,-2,16,19,15
-46,17,-28,-12,24,5,18,1
23,-8,-7,-13,-36,-20,-32,6
-64,-2,-32,-43,-9,-23,-23,-54
65,-20,28,22,6,5,-29,66
-98,17,-22,-23,9,5,-8,-47
84,-19,-26,6,-12,-13,-23,14
-82,-12,14,42,1,-4,39,8
38,37,1,9,15,29,96,33
-22,-24,5,-30,-31,-24,-68,-38
-48,-6,3,-24,-21,4,45,-31
93,5,27,44,26,5,-41,28
-88,7,-70,-57,-46,-45,-72,-40
21,-11,67,27,-7,9,0,12
14,24,36,50,29,38,87,9
24,-10,-35,-8,5,-14,-24,29
31,-14,-8,-29,-18,-12,32,-16
46,14,-19,20,-7,-24,-78,11
-128,8,-23,-45,-19,-1,0,-67
113,11,-13,9,6,65,110,62
3,-11,33,20,54,-20,-42,-1
-64,10,38,24,-6,9,99,19
14,-36,7,-6,4,-24,-53,-4
-43,13,-49,-29,-33,-7,-65,-46
40,-22,-14,-7,5,8,-20,8
-60,-21,-42,-63,3,-12,7,-10
47,34,21,122,64,33,-22,19
-109,18,60,-9,21,-16,21,19
44,-17,12,39,5,-2,-17,-68
6,20,1,16,11,1,24,14
-25,-17,38,-35,-2,-4,24,-17
-13,8,-5,-7,-13,-15,-43,-15
-52,-14,4,32,29,40,121,19
41,-27,9,-7,-5,13,1,-10
15,-14,-22,-20,6,-2,-37,32
-35,14,6,-25,-5,12,56,-58
-59,18,25,34,-2,-9,-24,5
75,2,-26,8,8,20,98,37
-82,39,15,-11,13,-18,-123,-1
109,-28,-17,-11,-35,-20,5,38
-35,5,-13,8,-15,24,85,-34
58,3,-19,-23,-24,-4,-43,10
7,6,17,26,23,-5,29,28
-85,9,58,37,-3,-5,-24,-36
107,23,0,-32,12,17,36,49
-75,-11,-72,-45,-22,-42,-48,-71
66,4,25,42,-27,-17,-34,46
53,-27,19,15,-11,7,42,48
-110,26,-44,-20,10,1,-4,-49
75,16,65,12,6,-1,-34,-15
-3,-22,-27,-66,-25,-33,-69,-34
15,-6,22,61,41,11,62,-15
-106,14,-3,-24,-13,-11,-61,4
71,-31,-27,-1,11,23,90,63
-36,0,-10,1,-4,-7,15,10
18,-6,19,24,29,6,-14,-3
79,-10,-1,-28,0,-17,-4,-36
35,5,15,13,-2,25,57,72
-20,-9,-30,-19,-5,4,69,-14
27,-16,-15,-2,10,-10,38,43
-86,0,57,-5,-9,45,98,-83
-29,14,-78,-24,-8,-61,-128,-16
36,-13,53,77,5,5,125,62
-74,20,-47,-52,-36,-16,-33,-39
86,10,-15,55,9,7,-3,28
-10,25,-1,-30,-32,-11,-76,-90
37,-2,-7,21,46,4,43,68
51,-22,-47,-21,-7,-12,-23,-1
-44,-14,24,5,-24,-25,-60,20
-128,10,34,24,17,27,36,-47
44,-33,-48,-52,-13,-11,-67,-65
44,-2,8,-9,-3,-40,-90,51
-8,-21,5,-8,2,16,35,44
25,6,-36,-50,-43,-46,-116,-64
59,13,46,-32,-35,13,73,-51
33,16,2,57,30,46,56,65
-1,2,-18,-54,-16,-60,-106,42
-72,-19,19,94,37,35,19,11
-61,19,-10,-14,-12,3,42,-4
-43,-20,-36,-32,-28,20,68,-86
-52,-1,-5,-21,-2,-8,1,13
-66,30,43,14,0,1,40,1
3,-27,-35,-37,-3,5,-48,-12
-99,-15,12,64,-3,3,-40,-77
56,-12,1,26,-10,-28,-5,43
-14,4,35,-7,29,35,127,59
-40,-2,-12,-2,-11,-15,-30,-3
52,0,-15,-36,12,8,-44,5
-16,9,-10,7,-2,0,-1,-32
45,-17,9,16,-22,-3,12,-18
-42,24,43,20,31,13,45,63
-22,7,-8,-57,-33,-27,7,16
1,10,27,70,29,73,100,2
92,-13,2,-5,10,-14,24,56
-10,2,-21,-28,-48,-12,-25,-42
59,27,-22,-57,5,-13,-51,-30
5,-13,54,-1,16,12,6,87
9,-6,-40,-32,-30,-11,-9,-28
-4,3,44,-43,-52,12,-12,-22
7,-4,6,26,41,18,67,22
-115,3,-21,-34,-66,-50,-80,-98
63,2,-17,16,29,-10,-36,64
-20,0,14,10,4,-11,-70,-13
-113,7,35,4,-17,-23,-15,0
114,-10,4,-46,-26,-16,-28,19
-69,-7,-14,-3,-12,21,51,-50
-31,-3,-38,-4,-8,40,56,-81
-14,-12,71,86,71,13,23,90
12,-21,-45,-2,23,-17,-27,9
68,15,-17,10,-28,5,-5,42
-19,6,22,-28,-6,-10,-8,-14
-55,21,-20,-35,-60,-2,-38,-37
114,6,-14,-26,-8,0,8,19
-128,4,31,37,40,56,77,-28
119,-4,18,47,-22,-40,67,84
16,2,-62,3,3,7,31,15
-22,-4,-8,-6,-13,-23,-5,-41
-107,5,-10,-18,33,17,25,-33
47,0,-6,-4,-7,34,76,-54
72,2,18,20,44,-7,38,89
-55,-2,9,38,16,-8,-80,-1
20,-14,-3,-29,-19,8,8,-67
-18,3,-10,-6,10,-22,-111,15
-35,-10,-45,-36,-2,-21,-32,-34
-65,-5,23,90,21,69,127,16
-50,-11,-5,-51,-52,-47,-97,-31
15,-4,25,40,54,2,54,58
74,-3,-30,-58,-17,18,109,-4
-22,11,29,66,27,-5,-60,-45
43,3,-7,-33,-18,-35,-116,42
-62,-4,-14,8,-33,26,38,-12
-7,-5,-24,-55,-12,-40,-106,-118
-23,9,45,33,-5,50,90,43
-5,1,34,46,56,17,61,49
80,16,-62,-30,-3,-41,-67,-14
-30,0,13,7,-33,5,-22,15
-49,6,-7,-54,18,0,86,-8
-61,-15,24,5,-12,16,75,-29
-36,-6,23,31,76,4,-31,-10
112,9,-24,18,-25,39,44,-7
-50,-8,-7,-68,-25,-54,-124,-21
74,6,-11,10,-19,19,95,39
-14,-6,19,52,42,16,-10,82
-25,0,7,-20,-1,4,31,-15
-42,2,-7,20,-35,-7,-47,-23
98,1,-27,-44,-19,-24,-20,-54
48,-2,-56,-45,-44,-38,-76,-9
26,-6,21,20,-22,-13,-54,23
39,3,9,-4,35,9,60,0
-22,0,-11,-36,-44,-30,-86,-66
-6,-3,-16,6,42,19,20,-3
-48,-2,4,-17,-3,1,-12,-42
-22,5,-30,-61,27,-16,-70,-92
-26,-2,23,85,37,7,71,116
-128,21,-9,-53,-71,5,33,-54
70,-16,42,75,100,20,88,116
-2,-3,-34,-33,3,-20,-10,-16
-72,0,-5,0,4,-3,21,-34
-34,16,10,8,11,6,47,-18
-77,7,-58,-70,-42,-27,-87,-91
42,6,22,30,-2,-16,36,62
16,8,10,49,12,21,55,7
-26,-16,-20,4,8,-19,-83,-28
25,17,31,32,-13,76,72,-102
127,-9,15,34,65,10,90,104
-128,8,-8,-44,-18,24,22,-90
127,-20,10,25,36,-17,2,124
-112,-3,-9,20,-13,-16,4,-18
56,-7,-20,-49,-51,3,8,-44
24,-6,1,-22,38,-13,-51,52
-71,-1,-13,-10,-35,12,11,-108
43,0,-14,28,29,-33,-128,-17
37,1,16,5,-16,7,91,108
-33,-6,-7,-34,-18,-37,-97,-48
-33,-13,-2,15,22,1,33,-35
-97,3,34,-13,-19,-34,-63,63
2,-23,-15,-12,-52,-2,60,33
2,0,-12,27,26,12,30,-35
61,5,24,26,17,9,10,63
-64,-2,12,-11,-19,3,14,-30
-6,11,-26,-8,-8,-22,-128,-85
3,-2,9,-36,-5,3,22,-6
43,-3,9,30,14,11,-26,25
-13,3,-7,-13,-9,-22,-23,4
29,1,-12,-16,-10,7,-25,-7
31,0,-21,36,31,6,-16,21
-66,5,13,-57,-23,3,14,-60
82,-9,-3,23,22,5,58,59
-98,1,-20,-33,-7,-24,-87,-37
23,2,51,53,-5,-2,-23,24
0,8,22,-11,-10,0,6,-5
26,1,-3,-15,-9,-1,4,6
-28,1,-28,-10,-4,10,28,-38
9,1,-19,-25,-5,-15,-37,4
-3,2,1,0,-3,3,2,6
-10,-10,-10,-12,-7,-14,0,-14
-27,2,11,21,7,7,35,-8
52,-8,-8,-12,-9,-11,-30,-1
-23,6,0,11,-2,18,23,21
-71,11,-7,-3,1,-1,14,-21
73,-11,-3,-1,-5,-9,-62,3
83,0,38,21,8,1,-13,39
-55,0,-27,-20,-12,21,6,-49
16,2,-11,-10,3,5,16,23
-21,13,4,16,16,17,29,-14
-36,8,3,-3,-6,-14,2,-3
1,-1,4,0,2,-16,-24,2
6,6,-8,-3,-8,1,-1,-14
-20,0,37,38,14,-2,12,1
-15,-6,-24,-27,-26,-5,-16,-7
-2,-4,-28,3,0,-10,12,1
1,-9,-1,-4,-4,-11,-10,0
13,-1,11,-6,-9,0,14,4
-46,-1,-46,-16,-2,-29,-15,-14
6,7,18,3,-3,8,7,16
53,-2,60,15,8,16,8,29
-44,2,-21,-6,-3,-5,-12,-29
3,50,9,1,12,35,15,9
-5,18,11,0,-6,-9,-3,-3
1,16,6,-3,1,-7,-5,-42
24,-26,-18,-9,-4,34,30,73
-37,-60,4,3,2,3,-6,-13
18,-18,13,11,3,-7,0,20
-13,-40,15,3,-3,-11,-11,-22
2,-110,-30,-17,-8,-10,1,-20
2,-32,27,-5,-3,-12,-7,6
13,13,26,4,-3,1,0,-3
-3,104,-4,2,-2,0,0,0
-17,127,-45,-7,-2,-6,2,-16
15,127,44,3,5,5,3,13
-3,107,31,11,6,-6,2,-7
3,117,-33,-7,-3,-1,1,10
-3,127,26,23,-1,0,1,-3
-13,-38,-40,-41,-8,-6,-6,-20
20,-105,-10,-9,-2,2,2,12
0,-6,-25,-22,-4,2,0,10
-3,41,2,12,-4,-4,-1,-11
4,101,26,14,4,4,0,-9
-20,42,-51,-18,-3,0,-1,1
8,-128,-19,-5,-3,6,3,19
-13,-105,23,8,4,-3,0,-14
-2,81,-5,7,1,-7,-3,1
7,-5,-30,-4,0,1,4,5
-3,-3,-19,-11,0,5,0,-5
-2,-11,8,2,-1,-3,0,-2
2,-56,8,-1,-1,-5,-2,0
4,0,-47,-11,-2,-2,-2,-2
-6,-11,36,7,-2,-6,-1,-2
