-1,0,1,0,-1,0,0,-1
0,-1,9,2,0,-1,0,0
-1,0,-9,-3,-2,-3,1,-3
0,-2,18,3,0,-1,1,-1
0,-1,-2,-3,0,-1,-1,-2
0,0,1,-2,-1,-1,-1,1
-2,-1,-3,-2,0,0,0,0
0,1,-3,-2,-2,0,-1,0
1,-1,-7,-3,-1,-2,-2,0
-1,-1,-2,-2,-1,-1,-2,-2
-1,-1,1,0,0,-1,-2,-2
-2,-2,-12,-4,-1,-1,-1,1
-1,-2,5,0,-1,-1,1,1
-1,0,2,2,-2,-2,-1,0
-1,1,4,-2,-1,0,-1,-1
0,-1,4,1,-1,0,-1,-2
-1,0,-9,-1,-1,0,0,0
-1,-3,5,-2,-1,-2,0,-1
-1,-2,3,0,-1,0,0,0
-2,-1,-4,-2,0,-1,0,0
-1,1,-2,-3,-2,-3,-2,-1
-1,-1,-7,-3,-2,-2,0,0
1,-3,4,0,-3,-1,-2,-2
-2,0,6,4,0,-1,-1,-2
-3,-3,-9,-5,-2,-1,-2,-3
0,-1,-5,-2,-1,0,1,-3
0,1,5,0,0,0,0,1
0,-1,-4,2,2,-1,-4,-4
-1,-2,4,2,0,0,4,2
-1,0,-5,-3,0,0,-2,-5
0,0,-3,-2,-1,-4,-14,-6
-1,1,7,2,0,1,-5,6
4,-1,-2,0,-2,-5,-9,-2
6,-1,-2,-1,1,4,13,9
-17,-1,-4,0,0,1,1,-8
-6,-2,-4,-5,-4,-6,-7,-5
-1,-2,-5,-4,-1,-2,9,-6
4,-2,1,2,0,0,-18,-2
1,-3,0,-1,1,-2,8,3
-9,-4,-6,-5,-2,0,-1,9
2,2,3,2,2,0,2,5
-7,-1,4,1,-3,-6,2,-6
15,-2,-3,-5,-3,-5,-30,7
-21,-1,-2,0,0,3,13,-11
-4,2,2,1,-1,-12,-56,-8
3,1,-2,-5,-3,2,50,5
10,4,-10,8,6,2,36,-8
4,-2,4,-6,-4,4,-8,14
3,-2,18,1,1,7,33,10
-14,-2,-1,-2,-5,-8,-46,-27
-7,0,-3,2,2,2,14,3
8,2,-2,1,1,-2,-6,-12
-6,-2,-16,-6,-3,-6,14,1
-1,1,3,-4,-3,-9,-34,6
0,-2,3,-2,0,22,22,-7
16,-3,-26,-2,-1,-3,9,4
-20,0,8,-4,4,7,-5,-6
10,3,8,4,4,-3,19,5
-14,2,7,0,-2,-22,-81,-30
18,-4,0,-2,0,4,49,27
-3,7,-5,6,3,11,56,13
-21,-5,-22,-10,-5,-3,31,-3
-8,-3,3,13,4,-14,-37,-2
9,2,2,-3,1,-7,10,34
9,5,-13,-8,0,2,-50,-15
16,-3,-12,7,1,-4,15,15
-13,-2,24,4,2,17,30,-39
-2,6,-5,0,-4,-5,-43,1
4,-7,12,-1,-8,-19,-55,5
-9,0,4,0,1,12,38,19
15,0,-16,-3,-1,-4,-10,8
-12,-6,11,-4,-9,-13,34,-14
6,-6,-5,-3,-6,-25,-10,-9
-5,1,21,3,7,31,-25,10
20,3,-55,-13,-8,-20,-14,7
-15,1,21,0,7,42,0,-31
-18,-2,-4,3,-3,-22,-42,5
19,-10,-13,-7,-3,-5,17,11
-18,-5,14,5,5,9,30,10
13,-4,-10,1,-3,-4,-19,-6
-1,5,1,-1,-2,-6,37,-5
-5,-2,24,2,-1,8,-34,-35
-3,-3,-23,-3,-7,-28,1,39
-2,2,-10,-6,-5,-20,-17,-2
53,4,0,2,0,-2,-35,38
-16,9,-11,4,1,-12,6,-73
1,-10,49,1,-4,21,11,38
-44,-2,4,6,5,16,62,-10
-23,-7,-23,-11,-1,27,31,0
7,3,3,8,3,-15,-25,15
42,-1,-21,-11,-3,-1,-3,6
1,-3,24,7,1,4,16,-30
-26,-11,6,1,-5,-5,-14,20
21,-13,-39,-17,-9,-38,-72,-23
32,5,33,6,1,18,87,78
-8,-2,-23,-5,1,-18,-14,-20
27,5,4,2,2,37,68,39
-6,3,0,6,-1,3,2,-32
-7,-7,-17,-20,-8,-12,-53,6
40,6,5,-2,-4,-7,-1,-64
-5,-10,-18,-6,-8,-18,-16,7
9,7,27,7,6,5,1,10
-70,-12,4,-1,-6,-22,-30,-31
71,8,16,1,-4,-6,-26,-4
-11,1,2,8,16,24,10,2
21,4,-8,-8,-8,-16,39,-38
-104,-13,-12,-4,-6,-18,-44,19
5,0,4,8,7,-10,-56,30
-21,-3,2,-2,-7,31,-29,-86
92,3,-16,-9,-3,18,-45,34
1,4,-18,3,1,1,32,1
-13,6,5,0,4,-2,9,6
-50,-10,-4,0,3,9,13,2
-48,-10,12,1,-7,-6,-58,-11
59,7,-31,-3,0,14,38,29
45,-1,4,-5,-7,-41,6,56
-81,-17,-12,-13,-8,-14,7,-4
-20,1,19,3,8,26,19,-6
0,-10,-7,-10,-15,-41,-37,-23
52,3,-18,-5,-5,-10,-5,85
-56,10,7,-1,7,62,65,-82
-7,-7,23,7,6,-11,33,63
30,-3,-3,-8,-1,29,-10,18
37,2,-14,-3,6,25,71,28
-17,-6,18,-3,-10,-19,-49,8
-4,4,-4,6,2,-1,5,-21
16,13,-4,-4,5,2,1,29
-75,-10,15,4,-7,8,-107,-58
96,6,42,11,0,-67,12,-21
-19,-14,-38,-10,-10,-23,17,22
108,1,14,3,-12,-37,-32,-3
-71,-16,-25,-13,-6,38,68,-23
28,15,17,-3,5,-14,30,-41
-45,-22,-65,-17,-3,-3,30,16
2,10,20,12,8,28,16,-4
-67,-15,-6,1,-8,-23,-49,-101
71,7,10,19,3,-2,-63,-28
-39,8,-2,-8,-8,3,44,-5
49,15,4,-10,0,3,31,64
1,-10,2,4,1,-6,-24,114
43,-12,-21,-8,-1,25,-24,-12
7,14,18,11,3,-44,-77,-4
7,4,-1,5,-4,22,25,-40
-43,-2,5,-19,-15,-35,67,-61
99,-10,-40,-12,-5,-24,76,80
-99,-16,15,0,3,-14,-97,-48
-61,-1,-22,-2,5,38,63,-98
57,18,-5,0,5,3,-6,-10
-59,-8,29,9,-3,29,-23,40
-4,-14,-54,-4,-5,30,80,5
66,4,15,11,6,3,-16,-49
-76,-21,-36,-7,6,30,-41,-19
68,16,-6,-14,3,-67,-64,-56
-31,0,-3,-4,-5,41,0,-72
51,19,21,6,-5,-28,13,29
85,18,-1,9,12,-2,8,-53
-74,-5,13,12,11,-3,10,-72
54,-9,34,3,4,-21,31,69
10,-39,-32,-3,-1,-47,27,70
60,29,31,10,-4,-41,-78,86
78,4,0,-6,-7,17,-6,100
82,0,8,14,16,29,-82,93
-89,-52,-16,-17,-8,-4,-4,-47
-1,10,-27,-1,1,-54,1,-15
-84,3,-2,9,17,104,27,-11
56,1,-17,0,-9,22,10,53
-25,11,36,-2,8,58,31,-12
88,-5,5,-3,-8,-35,28,92
44,-8,-27,-9,-15,-60,26,33
13,-8,-7,-14,-11,-38,0,35
12,18,20,13,4,-25,-75,-66
30,0,17,5,4,23,70,26
-70,-16,-17,5,0,0,28,5
27,0,6,-5,-16,-83,-30,-59
-60,-8,-10,-8,-4,5,36,95
9,-4,-2,2,7,47,-8,-102
17,22,26,3,3,34,6,46
-66,-28,-38,-25,-17,-47,30,-17
41,18,-13,-13,-20,-86,-73,52
17,-3,18,13,11,2,2,-66
-125,-3,-1,-12,-12,-59,-2,33
38,19,17,15,19,117,55,-49
-51,7,-7,-1,6,-20,-15,-120
-29,-15,5,-5,-12,22,-52,29
72,3,-27,-15,-17,-51,14,-9
20,27,23,5,12,-15,11,15
-23,-16,21,10,10,74,-33,-17
-66,16,44,6,-10,-80,15,-48
-6,-24,-18,-4,15,81,-12,79
41,16,-18,0,6,28,-45,-86
-2,-5,-13,11,16,80,63,67
-84,-36,-19,-15,-15,-25,34,44
69,9,24,14,5,5,-16,16
-23,5,51,-6,-3,43,62,25
66,4,-13,10,15,-24,-25,-76
51,6,-46,-35,-22,38,-72,18
87,-7,19,6,-19,-84,12,42
18,-1,-18,-5,-13,-25,59,-17
-13,26,35,4,-24,-106,5,-28
-7,-58,-20,-20,-12,74,13,-10
98,29,5,-9,-29,-99,-28,-107
65,-33,-21,-10,9,25,-29,65
38,-9,-21,-10,-7,-55,-47,-72
53,25,-10,9,27,110,61,33
-3,9,-9,8,9,-10,-27,-98
-2,13,60,7,-9,-72,49,-1
18,2,2,-1,3,-10,55,94
11,37,46,8,-13,-109,-84,56
31,-16,-58,-33,3,89,75,-23
61,15,19,5,-5,-62,20,-32
-64,-34,-44,3,6,104,-15,-5
68,-11,32,1,0,-14,38,68
28,4,14,-1,0,39,2,-5
-20,-7,-29,4,0,-46,-121,-24
-5,-1,17,-20,-15,-14,38,23
-5,-15,-28,10,9,-41,32,-85
-128,-15,59,-2,-3,5,11,-7
-69,-29,-70,-4,-2,-39,-22,112
16,1,-17,-10,-21,-62,-65,3
31,15,-14,-2,-4,-25,-32,55
-88,3,9,-2,13,61,52,41
80,16,-14,-2,5,38,15,28
-20,-5,10,8,7,-5,-30,-104
72,-15,2,11,10,17,2,15
-46,-29,-19,-2,2,72,13,9
30,17,33,5,-16,2,-62,-53
0,37,48,14,21,104,61,60
-60,-33,-34,-15,-15,-61,-26,-44
-34,12,30,13,14,-28,-128,-40
14,-32,-10,-6,-5,84,7,-104
-42,-12,3,-12,-4,8,31,27
2,7,34,17,-8,-85,-36,-42
97,4,11,0,-3,97,17,127
0,8,6,-6,-3,-62,-15,-9
-62,-2,10,2,-1,-51,-61,-112
-87,-12,-15,8,37,127,41,-85
79,17,-24,4,-5,-96,-22,-101
45,31,39,-1,1,50,-47,-6
75,-6,-3,7,5,35,45,-96
45,48,18,2,17,88,23,21
-70,-61,-70,-11,-11,-51,12,35
-72,-6,3,3,-5,-47,27,-30
60,8,0,3,0,-44,-66,84
79,17,-24,-3,-5,-15,-5,45
86,28,36,11,6,-1,69,-20
-12,-2,-9,3,9,4,-79,85
80,-16,-9,-8,-12,-17,33,91
-57,0,34,-3,-9,19,-6,5
69,12,-34,3,8,-27,-23,48
-77,-24,15,1,-1,-31,83,-83
-46,-14,-18,-5,6,79,-49,-101
-23,-20,19,-1,-4,13,43,10
-58,-12,-54,-5,-7,-53,-33,-39
13,-1,82,9,3,127,127,63
-38,4,-2,-8,4,16,-24,50
-99,-7,-22,-7,-17,-84,-2,-116
-111,-14,6,19,11,-1,-57,-24
-43,0,-25,-9,-6,-78,-43,-39
7,9,-12,1,0,39,54,11
-5,-3,-10,1,3,-12,-36,-75
50,4,-15,-17,-20,-4,-26,-66
6,-6,11,11,15,49,-9,21
-34,-19,-11,-15,-17,-14,-82,-71
57,6,-14,1,13,46,-42,83
6,-2,25,1,-2,33,16,-88
8,-23,-32,-9,-31,-94,-75,7
20,17,15,-1,9,63,112,39
-24,-12,2,-17,-8,-5,13,91
64,2,-17,6,-2,-60,-5,58
44,-2,-32,-35,-18,-70,-14,38
31,13,-17,13,18,2,8,14
21,16,19,-5,-4,-6,39,52
-23,-23,-31,-30,-34,51,-72,-113
41,18,8,14,19,109,24,-44
38,-13,22,-3,-10,-25,66,67
64,-6,-15,5,1,-2,22,-98
-4,9,-40,-11,-2,-64,-85,-39
43,33,11,7,20,67,29,50
0,-12,8,3,-6,49,-26,-93
-27,-13,28,-4,-10,-10,-1,75
-40,-12,53,-8,0,55,25,26
-45,-1,-18,11,14,25,15,1
72,31,-8,-1,-1,-68,-9,-28
-92,-13,1,17,5,-41,-40,-27
-54,-9,-10,7,18,29,-15,-62
-31,-4,5,-10,-1,-10,-20,41
-36,-11,-13,-8,-27,-65,-43,-12
-42,-23,-2,-14,-13,-7,19,-26
113,35,37,12,25,-3,9,92
-22,-6,1,16,14,32,84,-42
-101,-3,-3,2,9,28,23,86
66,14,-9,10,7,32,37,1
-29,-2,39,12,-4,4,97,0
51,8,3,10,7,40,-60,32
113,19,3,-8,-6,15,-46,36
5,7,-27,-3,18,43,42,19
14,11,18,15,-1,-46,1,-75
28,11,-24,7,-1,-53,-23,-45
-86,-34,24,-8,3,-9,7,-126
8,25,-1,-3,-14,-61,-76,-128
-75,-9,-3,-14,-11,-20,83,-10
4,-11,-37,-2,-8,-16,40,53
73,5,-18,15,24,45,10,36
-29,-12,-6,10,4,5,-27,-19
20,2,-5,-7,-11,-11,-27,55
-76,-4,11,-8,16,74,38,-69
-68,6,-11,-8,-16,-56,4,-58
36,4,-58,-4,4,30,44,71
36,-14,-17,0,-6,-24,-128,1
-104,-28,-23,-25,-33,-112,18,-90
32,0,-2,1,8,53,22,-21
-39,1,6,-21,-9,-19,50,-24
14,-8,-46,-8,-5,-32,3,0
-20,-14,-3,-15,-23,-69,-48,-100
-34,5,8,6,-3,-33,29,-57
44,4,21,0,-9,-4,16,30
86,25,25,6,12,23,53,-56
-49,-16,-22,-14,5,66,-7,-63
-12,3,6,7,-4,-78,-54,-19
96,22,-20,-25,-12,-55,28,60
37,0,18,19,-2,-65,34,-27
70,16,16,12,6,12,-19,39
-2,-13,50,8,1,-73,-46,52
-40,-20,-58,-15,-6,-4,4,-45
-67,-6,8,10,14,45,0,-83
-38,13,52,23,12,35,38,118
-1,-8,27,14,1,3,-2,-35
-35,-12,6,-3,-6,5,-100,-75
-15,4,0,-9,7,14,-18,75
13,1,-4,3,5,33,30,-8
2,18,12,-1,1,8,36,27
80,4,12,14,19,56,-82,34
-74,-15,-17,-16,-7,-16,3,79
38,0,-8,4,-5,-27,-22,-19
-10,-2,-24,-10,1,45,-14,-35
-10,-3,-3,10,11,23,26,-43
72,7,4,-11,-10,5,-1,43
27,6,0,-12,-9,-22,2,28
16,-3,-22,-6,-2,1,-18,7
-35,-5,-20,-4,-4,-19,20,-28
-11,0,24,4,-2,-10,2,-2
-7,-10,-13,0,3,21,-28,-6
0,-7,-27,-7,-2,3,-2,-8
33,8,6,4,-1,-1,4,7
-20,-2,-1,10,2,27,17,16
22,3,16,6,-2,-18,-1,-3
-5,-5,-39,-3,-1,-4,-14,-2
-22,-5,29,5,2,-6,-9,-21
-3,-6,-11,-10,-5,-3,10,3
6,5,15,5,-1,-26,-28,-20
15,2,12,2,-2,-7,8,7
-31,-1,9,-9,-6,-8,-7,-13
-12,1,-16,-13,-11,11,0,-7
5,3,-9,-21,-1,-5,-8,5
-6,-2,-9,25,12,-2,1,-1
-8,-1,4,16,10,0,11,-6
-7,3,17,17,-1,2,2,-3
3,-3,-7,-13,2,-15,-5,-7
-1,-9,-21,-69,-23,-17,-4,1
-8,4,48,79,24,7,-6,-11
-1,2,-8,-3,0,-5,3,0
1,6,7,31,-5,2,1,1
-3,-2,-16,-24,-2,2,-1,-4
-6,0,-7,-4,10,-4,-4,-3
-6,-1,0,-7,-2,9,2,1
6,-2,3,-13,7,-6,-3,-1
-2,-1,-6,5,-5,7,-2,1
-8,-4,10,-27,-9,2,-5,-8
-4,-2,-12,5,-1,6,0,-1
-1,-1,9,-13,-12,-6,-10,-6
4,0,7,20,16,7,2,2
-8,-6,-14,-12,-9,-4,-4,-4
-5,-2,12,-25,-8,-3,-3,-2
-1,-2,-22,-1,-17,-1,-2,-2
-3,12,25,20,15,3,0,0
-5,3,-8,-15,-14,-6,-2,-3
-2,38,3,12,11,0,0,0
1,-12,-7,0,1,-4,-1,-2
0,6,12,-19,-11,-3,1,0
-2,-2,-11,6,-2,1,-1,-2
-2,-14,1,0,-22,-5,-1,-2
-2,3,-2,16,-1,-2,-1,-2
1,-18,1,24,23,0,-1,1
-5,-34,-11,-2,-6,-4,-3,-3
2,-34,16,-3,7,3,1,-2
-1,-29,9,-2,0,-4,-1,0
-2,-9,-1,-15,-8,-3,-2,-2
-3,31,-1,1,6,1,0,0
0,23,-17,-2,-9,-2,-1,1
-2,5,22,6,7,-3,-2,-3
0,-17,-5,-9,-8,-4,-1,1
-4,-20,21,-11,-15,-6,-4,-3
-2,-12,-10,0,12,0,-2,-2
1,4,-4,4,9,4,3,1
-1,2,-15,-24,-12,-4,-2,-1
-1,0,15,14,-9,-3,1,-1
0,6,-6,-4,2,-2,-2,-2
-4,7,-9,-13,-10,-3,-3,-2
0,4,-2,25,10,2,-1,-2
0,8,1,-23,-9,-6,-2,-2
