2,1,29,9,-1,-1,1,3
2,-4,-39,-9,1,-2,2,-1
-1,-4,-13,-9,-3,-3,-1,2
-4,1,18,2,2,0,-1,-5
0,-3,-12,-2,-1,1,-4,0
-1,2,28,7,2,0,-1,2
-2,-1,0,2,3,2,1,-1
-3,1,-1,-1,-2,0,-3,-5
-3,-3,-13,-5,-2,-2,-1,10
3,1,8,-1,0,0,5,0
-1,-1,-9,-5,-2,1,-1,-1
1,-1,7,1,0,0,2,-1
0,-2,-7,-4,-3,0,-4,-5
2,-7,12,1,-3,-1,-2,-2
0,-3,-5,-2,-3,-3,-4,-2
-4,2,3,0,-1,-2,0,-2
-2,1,-12,-4,-3,-2,1,-4
2,4,10,4,0,-2,-4,0
-2,0,16,4,0,0,1,-1
0,-1,5,3,0,0,0,0
-2,-2,-14,-6,-4,-2,-1,-2
-3,2,0,1,-1,-1,-2,-1
0,1,12,5,-4,0,-3,-1
-1,-1,-32,-8,-6,0,-3,-2
-1,-4,-4,-1,-2,-2,-1,-1
-2,-1,6,-2,-5,-1,-1,-2
0,-1,-4,-7,-1,-2,0,0
-1,-1,3,13,5,0,0,-2
-2,0,3,2,1,1,0,-5
-3,0,-3,1,5,-2,-2,1
-1,-2,-11,-4,4,-2,0,0
-1,-1,11,-2,-3,-1,1,1
-1,-1,-1,-5,-4,-2,-1,-1
-3,-1,-2,8,6,1,1,-2
-2,0,-15,-4,-1,-4,-2,0
-2,-10,0,-2,5,0,0,0
2,-1,-3,0,-2,-1,-2,-1
1,-5,8,0,-2,0,-2,-1
0,12,5,3,-1,0,-3,-3
-6,-10,-40,-9,0,-2,-3,2
-1,5,-4,-8,-3,0,4,1
-2,2,15,11,4,-4,-2,-3
-2,-7,-23,-8,-3,-1,0,-2
0,9,20,1,-11,-4,-4,2
-1,-15,-19,8,15,3,3,0
0,4,-9,-6,-8,-1,0,0
-2,-1,6,2,-2,-2,-2,-1
0,3,13,-1,0,-1,-2,-3
-2,-3,-12,-3,-3,-2,-1,-1
-1,-15,3,-7,-7,-3,-4,-3
-3,2,-1,4,0,0,1,0
3,20,7,2,2,1,1,-1
-2,2,9,4,-1,-1,-2,-2
0,-3,-7,-14,-3,1,-1,1
3,-2,-5,5,-1,-1,5,2
-1,-9,-2,4,6,1,2,-2
-4,-5,27,2,0,-1,-3,-11
-5,-6,-49,-7,-7,-3,-12,3
-2,0,2,-6,2,3,15,8
-8,-11,-2,4,-2,-2,-1,0
6,17,-12,-3,-4,-1,-4,1
-3,6,8,-15,-12,-4,8,-5
-4,-3,5,6,3,-1,-8,-6
-1,-8,-19,-7,0,-3,-10,-4
5,12,7,14,6,1,10,6
5,-3,50,10,5,2,3,9
-3,-9,10,-6,-1,4,-13,-6
0,1,3,-11,-8,-2,-7,2
-1,-2,1,-9,-6,-4,1,-2
-2,6,-2,1,-1,-3,-5,-6
0,-9,-1,1,-1,3,6,1
-8,-3,-10,-5,-9,-5,-5,-8
10,7,2,-4,-2,-3,-11,1
3,10,36,18,6,2,5,2
-7,-10,-56,-21,-4,-1,-7,-3
2,-4,5,7,2,1,6,-2
-12,-3,-31,-5,1,-6,-30,-3
8,5,20,-5,-1,8,18,11
2,6,26,9,-3,-4,-1,-5
-4,-2,-12,-5,-6,-3,10,4
-7,-3,-12,3,6,2,4,-3
4,-16,-9,9,3,-2,-11,-4
-5,-2,-17,-17,0,-2,-1,-3
1,10,5,4,-3,1,3,3
-5,0,6,-9,-7,-4,-5,0
-19,-20,-16,-2,-2,-9,-28,-15
18,37,43,24,4,7,39,15
2,-12,-1,-1,-2,-4,5,-1
4,8,-20,-7,0,5,6,0
-2,5,-26,-11,-5,-4,-11,3
-11,20,42,-5,-3,-6,-16,-8
7,23,19,14,2,4,-2,2
-5,-35,20,5,1,-5,-15,0
7,-35,-46,-30,-1,-4,5,-5
-4,-15,19,29,4,7,2,0
-14,-7,11,1,-5,2,3,1
-3,-8,-5,7,2,1,-3,1
-2,6,13,1,-2,2,-1,-7
-5,-36,-1,-29,3,-6,-6,-5
5,-28,-37,-23,6,0,-10,3
0,42,-5,17,4,3,25,-3
-4,-3,-2,16,-3,-2,17,1
-9,-56,-56,-8,-7,-3,7,3
-7,-52,20,-6,2,-5,-14,-13
3,8,0,-15,-3,-4,-32,-4
3,38,43,1,-2,0,21,8
2,5,6,18,0,-5,6,-8
-6,-4,-13,-28,-11,-8,-19,-6
-15,16,-52,-15,-2,8,30,-2
11,1,-18,-23,-10,-3,-13,8
11,20,-2,6,-1,-1,-17,12
11,51,18,11,3,2,32,2
-6,-22,19,23,2,-8,-11,-5
-8,-25,-16,5,16,4,4,-3
2,-1,-10,-20,-27,-10,-24,-12
15,12,-4,20,-2,1,-13,3
-19,-50,-78,-66,-10,-4,14,1
24,28,58,7,-3,3,5,13
-3,-6,-31,8,44,3,-12,-5
-5,-27,103,51,1,5,15,-9
3,-12,-14,-34,-21,-18,-51,-1
-6,37,-35,26,36,11,43,4
-12,54,1,-23,-31,-3,6,-6
1,-14,-9,-5,15,4,12,4
8,4,66,35,10,2,-27,-12
-11,-19,-9,-18,-19,-11,9,6
-12,-3,6,-39,-4,1,5,1
-12,54,8,52,22,0,-3,-4
26,13,-52,2,-7,6,19,7
-2,-6,10,-9,-22,-17,-44,-7
-4,-40,3,16,11,2,-5,4
17,-7,-6,-3,3,-2,-20,1
3,-3,31,-34,-20,5,54,-10
-24,-16,-39,18,-4,-15,-32,-16
8,-62,3,17,28,-3,-12,-10
-28,43,-17,-27,3,2,-16,-14
50,3,44,9,-16,2,17,49
-9,-22,-54,-9,32,11,18,-2
-17,64,59,22,-58,-9,-41,-1
-19,-23,-49,-22,1,6,19,-22
18,63,11,13,11,5,-14,4
-10,16,-13,-26,-8,3,8,-10
-21,-22,19,16,5,0,-27,11
13,-22,31,-10,-32,-5,-23,3
-16,-91,-4,15,17,-8,-7,-3
17,28,-72,-77,-18,4,-12,7
2,-27,18,58,31,12,45,8
-4,31,-41,-66,-8,-9,-10,-13
-32,38,100,46,11,-14,-20,-14
37,-21,63,17,-45,3,-42,5
-22,-22,-105,-26,8,23,105,-13
33,68,61,20,26,-6,-47,24
-16,10,-40,-29,-1,18,39,-9
-30,23,72,75,11,-1,-33,-5
77,16,-60,-49,-11,3,33,-3
-29,-24,9,12,6,-5,-49,-4
4,-13,20,-3,1,-11,28,23
30,33,-18,-6,-14,20,29,7
-89,34,20,10,12,-6,-18,-33
95,-35,53,31,7,3,4,49
-29,-17,-10,-34,-23,-4,4,-39
-8,-41,-25,5,21,-7,3,34
14,13,-16,1,3,-9,-4,-29
-60,-6,-31,-49,-53,8,45,2
45,-44,16,28,-13,-22,-60,23
-13,-21,67,25,7,-4,11,-11
-68,30,-52,-69,-11,-17,-34,-7
29,51,-11,43,7,-2,-22,-12
51,63,-15,5,-6,4,-23,8
6,-32,36,19,1,2,59,-1
10,-39,-57,-61,3,-9,-9,10
12,-92,-9,-3,-16,-16,16,15
-128,42,-5,-19,-2,15,-34,-83
63,-19,4,4,32,-18,-52,-3
22,58,60,15,-34,-9,31,31
25,5,-3,-1,27,34,65,38
14,44,-18,30,2,27,80,29
-94,3,-1,-41,-26,-19,-4,-59
77,-56,-30,15,-1,-10,-82,-10
-14,53,1,-11,15,-10,39,32
53,63,-28,0,18,16,70,45
67,40,11,-16,-42,13,-12,7
20,-61,96,17,-6,12,-23,-14
2,-128,-14,-40,-26,-15,-39,-25
-64,-122,-81,-71,-13,-13,4,-34
18,48,30,46,45,22,-18,17
1,-25,-1,-27,-73,-36,-38,4
-50,-35,-59,-28,-31,4,-83,-76
62,-36,103,66,28,-26,-60,50
-50,-1,-69,-8,-12,-19,24,-16
-16,-3,-23,1,3,18,69,-14
37,25,20,-17,-14,-17,127,66
-59,10,39,21,-15,19,71,-33
47,-15,37,-48,-13,-12,-52,28
-27,28,61,84,10,-2,-70,-40
-74,12,-128,-119,-16,-12,-18,-53
-12,0,86,87,38,-2,-24,29
92,-11,-20,-19,0,-32,-23,25
-59,15,27,12,-16,20,6,-41
5,19,46,67,18,-13,-32,21
21,-22,-56,-72,10,-4,-10,-9
-61,-6,-39,-51,-53,-46,-18,-45
28,22,50,30,13,40,73,57
55,-4,33,51,16,-8,-46,-6
4,-6,42,31,-15,-39,-44,-6
-35,-1,-59,-20,14,26,4,18
-2,11,-47,-31,46,39,95,39
-44,-3,53,2,-6,22,16,-42
95,1,13,-1,-15,-29,-4,52
-97,1,-3,16,-8,69,96,-91
11,-6,-53,-36,-9,-101,-113,17
17,6,57,92,61,33,120,71
-61,0,33,37,19,-9,-63,4
-59,-8,-60,17,-11,13,73,33
-51,7,-26,-37,13,23,43,-52
-10,2,-39,19,-11,22,18,-29
85,-3,43,22,9,24,9,-5
-47,-9,85,19,-9,-31,-34,-1
-5,8,1,23,11,10,-34,33
4,3,25,-21,-9,-42,-56,-25
-74,-6,-65,-63,14,90,114,-85
127,-2,127,127,110,-11,-114,82
-67,2,70,27,-16,-38,-77,-82
71,-4,-91,-86,-27,23,57,111
-53,-3,-96,1,-20,-33,30,-4
-39,3,-10,-9,15,40,81,3
76,1,66,33,36,7,-15,28
-100,-3,23,4,9,1,29,-58
6,-1,13,-16,-17,-20,-60,-5
-92,3,-53,-101,-34,14,96,11
103,-5,-9,80,32,18,-45,56
-87,-3,108,-1,-40,-17,-26,-39
4,-1,-106,-36,-9,-11,-57,-32
63,-2,0,21,-18,-30,-24,-22
-40,0,10,-67,-50,21,54,-10
9,3,12,23,16,-5,-87,-18
33,-2,0,-22,1,-7,53,62
-59,-2,60,-3,-6,-2,3,-64
19,-6,-95,-55,-29,-46,-64,-18
83,0,39,14,-17,4,83,27
-52,-3,74,-9,-18,-18,-31,-24
-37,0,-42,-19,4,22,25,-48
-72,1,-16,-22,0,-2,49,12
95,1,4,-32,1,-49,-106,-27
-6,-1,-2,75,11,22,39,120
-32,2,34,-6,-22,-38,-29,-9
-75,-3,69,5,-13,-11,-38,-42
-11,2,-75,-46,20,14,32,-9
-42,3,-8,-97,-44,-17,13,-54
37,-2,35,82,68,21,-69,-8
41,-5,52,16,26,13,15,16
-43,1,57,-28,-18,-18,1,-27
58,1,-55,1,21,-9,-26,9
-65,-5,5,-28,-24,-22,-22,-14
-42,-2,60,17,-17,15,10,-45
90,-1,-56,40,60,69,88,102
0,-5,14,-13,-19,-42,-84,-43
-51,-1,-34,9,-8,43,115,-74
127,-2,-31,-32,9,-13,21,112
56,0,-56,-50,-40,1,-18,-44
8,-3,112,84,37,36,-37,48
20,-3,-59,22,26,3,20,67
-54,4,-110,-113,-25,-21,-47,-36
-95,-3,32,89,32,22,-4,-41
20,0,-1,-10,3,-8,4,-12
48,-2,16,-11,-9,-16,-74,-2
-24,-3,17,106,36,18,20,8
-49,1,-83,-76,-32,-32,-43,-31
-91,-2,2,13,-11,20,-34,-74
127,3,84,-27,-80,-1,36,105
34,-1,-106,19,-15,-15,5,-5
-50,3,33,-39,1,-4,56,23
-111,-1,32,-26,-27,26,-34,-115
-1,0,-29,-75,-20,-2,77,5
69,-4,49,7,12,-9,-48,102
101,4,91,90,13,-14,-26,57
-94,-1,-102,-73,-40,-6,20,-49
-19,-4,-50,-19,36,11,-5,-86
70,-2,31,-98,-61,-12,14,18
10,-1,28,87,35,-17,-43,-11
13,-3,7,4,-7,-12,68,46
-7,-2,-77,-78,-52,-14,-51,-17
-19,1,-4,-2,-8,33,1,-49
16,1,-17,-35,-34,-24,-68,-1
66,-2,-4,-50,-15,-37,-60,-11
17,-2,54,49,15,-2,-9,6
-31,2,-73,4,47,5,1,-102
-48,-3,-10,16,28,18,27,83
-8,1,-5,31,-1,-3,-23,-46
15,1,-11,0,13,9,-59,32
-46,-1,74,13,43,31,73,17
-52,-7,76,83,53,2,-43,-62
107,3,-11,-31,-27,-35,-41,22
-3,-7,24,5,22,-23,57,94
10,-4,26,26,-17,6,31,-8
-20,-5,8,-45,-37,-10,-11,-23
-11,-2,-28,4,20,27,82,5
-21,-1,-11,15,6,-9,-45,-49
13,1,-4,-1,-4,-7,1,10
-22,1,9,-11,-14,6,44,-11
25,-2,-15,3,20,10,-20,14
-14,2,-5,3,4,5,15,-4
-18,1,51,5,4,-17,3,22
-16,-1,-46,-25,-29,4,-18,-30
-5,-5,16,28,13,10,14,21
12,-1,-23,-6,-1,-10,-37,9
-14,-4,2,0,-9,-1,7,-6
1,1,-28,-11,-8,-3,-13,-16
11,1,26,-1,11,5,26,23
-3,-4,0,5,4,-2,7,-3
-4,2,-21,-3,-2,-1,-12,-9
-2,1,0,-7,-6,5,26,-4
-1,-1,-17,-9,10,0,17,18
-12,-4,8,1,-4,1,-22,-16
-9,2,4,8,-3,-3,-6,-3
-2,-1,-24,-12,-2,-3,-7,-7
2,15,40,9,1,6,16,14
6,6,-7,1,2,-2,-8,-4
0,-1,-9,-3,1,-2,7,0
2,-17,-27,-5,-4,1,12,2
-6,1,60,11,4,1,6,-6
-9,-8,-35,-11,-1,1,-6,-7
5,-10,-4,-6,0,-1,5,5
-11,2,-30,-15,-4,0,-8,-8
7,-4,14,10,7,1,1,7
3,3,11,9,4,-4,-6,5
-3,-2,-5,4,1,-1,3,-7
6,2,27,-1,-4,-4,-6,-3
4,58,-64,-7,3,3,6,20
-7,57,-11,-1,1,0,2,-6
-7,32,34,5,-3,-2,-4,-5
-8,115,-52,-16,-4,3,0,6
5,57,-20,-11,-2,-3,2,-3
4,-74,39,19,3,0,-7,0
-4,-38,-14,0,0,0,-3,-1
3,-128,11,10,0,0,0,5
-1,-39,12,-6,-5,-2,-1,-2
2,-113,-10,-9,0,-1,-3,3
8,-113,3,4,-2,-2,2,-2
-6,-128,16,-13,-1,1,4,5
-3,-128,-56,1,2,2,0,-5
-2,-99,49,25,-1,-1,-3,0
11,-107,-45,-9,3,-2,2,7
-19,90,-42,16,-4,-3,0,-15
11,49,36,-5,3,2,-2,3
-4,127,65,-7,-2,-2,-5,-4
0,127,-80,-19,-6,-1,0,7
-3,113,22,6,-1,-3,-3,-14
30,-22,-24,-11,-2,-2,0,16
-51,-22,-33,3,-2,-1,2,-23
13,-53,45,2,3,3,-1,2
-22,-81,8,9,2,1,0,-10
0,-128,-31,-6,-4,0,2,8
20,-104,3,-21,-4,0,-1,7
-12,-110,14,25,-4,-3,0,-11
7,-107,-16,-14,-7,-1,-3,6
1,-102,23,5,-1,0,0,-7
1,-122,-40,-7,-2,-2,0,2
-2,-72,9,7,0,-1,0,-1
11,-61,31,-7,1,-2,0,-2
-4,12,-9,8,0,-2,-1,-4
5,29,20,6,1,-1,0,-3
-7,27,15,2,-1,0,-3,-2
3,-11,-4,-11,-3,-2,-11,7
-11,-5,11,-11,-6,-5,-22,-17
5,22,-21,9,8,8,46,11
-1,29,15,-11,-4,-5,-16,-6
3,9,-1,11,4,6,39,18
-3,27,6,-7,0,0,2,-3
9,32,-4,11,-2,-1,-20,-5
-2,26,12,-9,-3,1,11,6
-4,11,2,-3,-5,-6,-26,-8
-7,3,9,4,-1,-2,-6,-4
2,14,0,3,0,-1,1,-2
-1,24,6,-9,-2,1,-1,1
-1,14,-55,-18,-6,-4,-6,-4
1,9,2,13,3,2,9,-2
2,17,7,-2,-1,-4,-5,0
-6,17,-11,4,1,-2,-2,0
4,6,3,-6,0,1,0,-2
-2,16,-8,-3,-4,0,9,2
-1,17,-11,-3,-4,-4,-12,-2
-2,6,-15,-8,-1,-1,-2,1
0,4,6,-8,-3,1,2,-2
-3,6,7,1,0,0,-2,0
-1,8,25,7,-3,0,-9,-2
0,5,-76,-18,-3,3,6,0
6,12,10,15,7,0,-2,-5
-13,5,43,11,2,-2,0,1
3,4,-11,-5,-1,-4,-4,-1
-1,9,5,2,-1,0,3,2
-2,2,-2,-5,-3,1,-6,0
0,3,12,4,-2,0,1,-2
-1,2,-32,-7,0,-1,0,-1
-3,1,-27,-4,2,-2,-3,1
-3,0,40,0,-2,-1,-2,-1
0,3,14,-1,-3,-3,1,-1
-1,0,-3,-4,-2,0,-4,0
2,7,-4,0,-1,0,-3,-2
1,3,10,7,1,0,0,1
0,-2,-12,1,0,2,4,0
-1,3,9,-1,-2,-3,-1,-3
-2,3,3,0,0,-2,1,0
-1,0,1,-3,-2,-2,1,-1
