-2,-1,3,-4,-3,-4,-1,-1
-2,-9,-10,-4,-4,-2,0,-2
-1,6,12,0,-1,-1,-2,-3
0,-4,-3,5,3,2,0,0
1,5,12,-5,-4,-2,-1,1
-1,2,-14,-4,-4,-3,-2,-1
-1,-8,11,5,0,-1,-1,-2
-2,-1,-4,0,3,0,0,-1
-2,-5,18,3,-6,-1,-1,-3
-3,-3,-10,-3,2,2,-1,-1
0,1,-14,-3,-3,-3,-1,0
0,1,-7,-5,0,-2,-2,0
-1,-5,-4,-7,-4,-2,-2,-2
1,4,14,15,8,-1,-3,-2
0,0,2,2,0,1,-1,0
-2,-4,-1,3,4,-2,-3,-3
-1,-3,-13,-8,-10,-3,0,-1
1,-3,-16,-7,-4,-3,-1,2
-3,-2,6,7,10,0,-2,-2
-2,-3,11,-3,-3,1,-1,0
-2,-3,-6,8,8,-2,-10,-1
2,1,-8,-9,-3,-1,11,0
-1,-1,4,6,-1,-2,-2,0
-1,-8,-27,-7,-7,-6,-11,-4
-1,0,35,9,3,3,3,1
-2,2,0,-3,-6,-6,-18,-4
-2,0,-25,-12,-5,-1,-25,-7
-3,-2,2,0,-1,2,-6,-5
3,4,-6,-1,1,6,26,7
-1,-7,-3,-12,-13,-7,-8,-7
4,6,-1,-14,-6,1,3,4
-5,13,16,21,8,6,22,6
0,-5,-13,0,-5,-5,-23,-11
1,-1,13,13,3,1,1,9
-3,1,-13,-18,-2,-3,5,-8
0,-5,-18,-19,-7,-9,-13,-2
-3,0,-2,7,-1,13,36,-4
-2,2,-10,-7,-9,-18,-26,-2
1,2,1,-6,-14,-5,-9,-11
11,5,9,10,18,3,-8,6
-7,-4,3,35,-4,-15,-43,3
13,-7,-7,-55,9,8,-21,-5
-16,-5,-14,17,2,3,45,3
-11,3,22,1,-4,-9,-36,13
9,-6,13,-3,3,4,29,-17
13,2,5,36,5,3,9,17
6,-11,35,13,-10,-7,34,-4
-11,-8,-80,-102,-9,-10,-20,13
5,2,-12,79,59,22,3,14
3,8,-29,-3,-13,2,12,-10
-27,-2,43,16,2,0,-13,-17
9,-13,22,19,-5,-7,2,-2
-14,6,55,9,-2,-6,-16,-6
-13,8,-23,-27,-6,-2,-6,3
22,8,-34,-70,-21,3,5,2
6,2,-30,19,6,1,13,4
6,-13,-41,-44,-7,-12,-21,-1
-29,-9,72,62,15,8,19,-10
4,-5,-40,-25,-15,-6,-43,7
13,-2,38,5,-8,-2,-5,-11
-7,-9,-57,-24,-3,3,11,11
7,24,11,-14,-2,-4,6,-3
0,-38,31,13,-1,-3,28,0
-10,12,2,45,13,7,-33,-17
1,10,15,-4,-6,-12,-19,-1
7,-3,-39,-37,-25,-3,-16,5
-2,40,-10,-26,-3,7,1,-2
-1,3,47,15,-37,-2,13,4
-4,-11,-64,-64,-15,11,32,7
3,7,59,51,13,3,-14,-4
-18,-30,-29,41,15,-2,-2,-18
-14,2,-6,6,6,-3,-22,-8
18,-12,-58,-53,-28,-2,57,21
-4,-5,40,20,14,2,20,-12
18,-1,-16,-9,13,-4,-26,5
-50,-11,31,8,-1,-8,-18,-20
17,9,61,40,12,8,24,8
2,1,-51,-29,-5,-1,-9,-2
-34,-2,-4,8,3,-6,-86,-8
41,28,2,-33,-10,8,92,3
-15,-3,4,10,-1,-12,-17,-8
-6,-16,21,53,13,6,24,1
-20,16,44,8,2,1,15,-5
10,9,61,20,-1,-9,-44,-2
-1,-10,-75,-41,-22,-6,-33,-8
-16,-43,-55,-9,-10,1,4,6
15,-2,87,70,10,-7,12,6
-1,-51,-70,-45,-17,-2,-49,-9
3,17,15,1,11,12,26,0
11,5,-37,-28,-12,-12,-43,6
-13,13,-50,-14,4,6,17,-9
13,-10,-11,-35,2,7,41,15
-28,1,22,15,-2,-17,-55,-22
-35,36,9,-16,0,-7,-22,9
43,21,1,3,8,11,61,17
-32,-1,-33,9,-7,-18,-82,-37
27,-2,-26,25,24,14,69,1
6,-30,-57,-45,-14,6,9,31
23,-28,36,13,-12,-10,-39,6
-27,13,-38,17,6,0,2,-4
-16,-4,92,-23,-27,-16,-29,-16
-21,31,-30,37,25,3,9,-26
-41,-43,-9,-5,7,19,50,8
66,34,-73,-26,-9,-5,23,18
-1,-84,3,1,-27,-18,-88,-8
2,1,45,9,12,-11,-31,-8
-32,49,-30,-21,-2,4,68,-13
13,-19,83,47,8,3,-4,31
5,19,-17,-44,-16,2,60,2
18,6,42,-2,-11,-12,-47,-9
-33,16,-58,-24,4,-3,-28,-9
-17,-39,9,15,9,15,61,-17
-13,30,55,30,14,-5,-55,4
-23,-48,-67,-16,9,19,108,-15
37,38,-12,-33,-31,-16,-84,12
8,-35,8,6,-11,-4,44,14
45,59,-37,4,-2,-6,-51,4
-16,-14,21,13,33,-7,-62,17
13,5,6,26,5,12,44,-8
-31,24,-1,14,8,6,-21,-12
-12,11,-62,-24,-17,8,84,11
17,-12,36,42,4,16,16,2
-23,-53,-2,-6,13,-10,-63,-11
28,15,88,47,14,5,14,6
-15,-35,-49,-60,16,-5,21,4
-42,78,-78,-31,-54,-20,-14,-24
65,-52,21,19,15,18,-47,18
4,62,-10,-5,-6,9,61,1
-16,48,25,6,8,8,42,-1
17,-61,26,-12,-10,-16,24,9
-48,40,-30,5,5,-6,-53,-29
-22,-6,-14,2,39,29,1,16
59,-38,7,10,-2,-6,9,13
-4,-14,25,5,14,5,20,-16
-25,40,107,25,8,6,68,21
-5,5,-75,-41,2,-9,-39,-36
-40,-9,36,5,-21,-12,-19,-8
-17,30,11,4,-41,-5,-52,-29
22,-43,-19,-45,-27,-23,10,-12
14,61,25,53,34,5,20,42
10,8,-5,9,22,18,-8,-20
34,-48,-22,-16,-2,-17,-22,22
-11,90,-6,-8,-30,8,46,-14
8,-128,-10,-55,-47,-32,-45,14
-102,70,8,22,7,4,-47,-87
89,-26,-30,-31,8,27,71,37
-27,-128,81,25,4,-30,-64,-13
78,55,24,41,13,32,40,64
50,1,-61,-11,-13,-3,2,20
-128,-79,8,-12,20,-10,-37,-50
127,49,-20,-12,-7,33,80,47
-128,-38,0,-106,-70,-46,-110,-70
67,29,51,72,33,11,-20,43
-59,24,1,23,-5,12,31,-27
41,-9,38,60,57,13,38,44
95,-34,-100,-16,-19,-5,95,15
-24,39,25,-38,-15,-27,-118,-51
35,22,11,17,8,45,127,56
-57,-46,-67,-5,0,-23,-90,-27
-72,20,-32,-25,4,12,61,-7
7,-13,122,49,26,-4,-11,12
4,21,-44,-16,0,28,64,-27
-128,62,20,3,25,0,-46,-62
84,-69,-29,16,-5,-26,-51,17
-54,-17,-29,-54,-50,-22,-23,38
-61,-45,2,-15,-14,14,3,-30
-66,97,7,3,9,15,83,21
25,-38,34,10,-31,-37,-73,-44
21,-92,-5,0,2,31,23,-21
88,93,-34,-13,-8,-67,-128,24
0,-58,29,-32,-48,3,53,16
-49,70,12,-16,49,35,108,-9
25,19,38,-15,-39,-27,-59,29
113,52,37,50,7,25,4,-44
36,-22,-19,-19,-39,-50,-104,-5
-100,-16,22,5,19,27,-53,-5
12,91,58,21,33,17,35,52
-87,-73,-47,-29,-1,33,101,30
-78,13,-88,-4,4,-19,-12,-106
76,74,41,-43,-71,-3,-41,17
-70,-25,3,27,-1,-5,-20,6
63,127,31,22,12,21,78,57
109,-102,-50,-10,-2,-22,-89,0
-101,38,-33,-17,-16,-69,-82,-65
5,-75,-24,-6,63,3,127,56
23,24,56,39,4,-54,-125,54
11,33,-3,-109,-48,53,65,-9
77,-52,-38,72,57,30,29,37
27,103,-20,-2,-2,2,-20,-101
-75,-128,-72,-28,-13,-51,-92,-13
126,101,34,-4,-15,8,-9,-27
-80,54,-24,-25,-12,34,-16,-56
-50,9,11,72,28,26,62,67
-97,-20,28,-97,-39,-28,-33,-97
83,-97,-11,120,59,29,75,127
35,98,2,14,-24,33,83,-56
-105,-14,-40,-2,40,79,69,-24
93,34,16,17,32,-8,21,105
-128,-85,10,-18,7,-27,-41,2
42,-123,0,-4,-3,-11,-18,-3
-59,2,-19,-95,-30,24,74,-86
88,127,39,69,26,-4,-58,-40
31,-26,13,20,21,18,85,65
-13,-40,46,17,23,7,-48,-7
-38,-27,-58,-34,-59,-29,20,68
46,-59,75,12,10,28,-16,-6
57,55,-53,-91,-81,-24,-76,-30
-22,56,-5,1,8,-13,9,16
-53,-38,31,38,-6,-37,-71,-48
36,8,-44,-6,-9,14,79,2
10,19,29,7,8,27,85,85
95,8,-16,-35,-22,-32,50,26
5,-12,-52,-39,-33,-38,-104,-32
-128,-16,-23,-38,-30,-18,-22,-101
-43,26,39,49,70,6,-105,-64
-97,-6,2,-29,19,16,96,24
93,-4,-1,40,-10,-13,-9,23
-110,10,-64,-5,-8,-29,-85,-29
-10,-3,-36,-41,-11,-29,-13,-44
29,5,21,7,27,-21,-45,115
-54,-11,70,29,18,5,69,9
-8,-11,-44,-24,-37,16,-73,-61
-107,3,27,18,3,-11,-8,-55
3,-4,-48,-12,-22,-7,-54,-124
104,4,-39,13,13,-31,-3,94
42,-14,29,-20,-54,7,118,63
45,19,67,69,22,3,11,29
-33,17,48,-79,-29,4,-12,-76
-89,-12,-50,22,12,52,94,-66
82,-6,-14,-16,25,-71,-111,-9
56,4,-11,1,-13,-10,87,42
-60,1,44,48,37,37,15,41
2,-4,-37,-41,-22,-28,-117,-54
-46,-9,19,-26,-27,-26,57,21
-16,9,-24,35,13,4,-57,-68
90,-5,24,53,6,-6,19,93
-10,-4,-22,-72,-60,-13,-66,-34
-61,-4,18,-16,3,50,54,-45
46,-2,-54,-114,-63,-22,48,11
26,-2,17,29,3,-4,26,36
28,-5,12,61,62,32,108,-43
-70,7,41,33,25,45,13,-26
67,0,-17,9,-2,-12,-42,-16
20,1,-3,-9,-45,-1,95,80
47,-3,42,19,38,-10,-2,27
-74,-4,-17,14,26,11,75,-9
-38,-4,-37,-46,-28,-32,1,-66
-4,-3,3,47,12,-10,-25,-26
102,1,-35,-38,-1,15,44,54
-42,7,34,22,17,3,21,-3
-85,-2,-20,-95,-87,-33,-13,-46
36,-3,30,8,11,14,-128,-39
47,-5,2,26,47,6,76,87
-20,-2,29,-2,28,-6,-21,-13
36,0,-26,24,-2,45,70,0
-63,2,-62,-103,-45,-36,-107,-74
-8,0,-15,2,-27,-26,-127,-108
51,-4,33,97,30,19,-43,106
-69,2,-1,-19,-27,-23,43,78
55,-4,-5,103,20,24,81,-43
-26,4,48,21,1,20,48,-7
64,-1,-56,-90,-48,-56,-37,-21
10,2,3,-7,15,2,0,51
-56,-2,-8,5,26,-11,46,31
-17,-5,-16,-25,-6,85,127,-42
69,-6,46,22,42,-26,-76,49
-6,-5,11,-8,29,-2,-39,3
36,1,-43,2,-23,25,74,34
1,2,-10,-29,-67,14,38,-57
-37,0,-2,-40,-1,-20,-19,-3
82,1,21,120,41,-1,-32,90
-84,-1,2,-54,-8,-10,-3,-47
-52,-5,-1,-55,-27,-50,-89,-26
4,2,-55,78,13,102,79,-72
22,-4,39,35,43,13,18,9
-15,-2,44,1,18,-9,-12,-2
-1,-5,-11,18,-1,-5,-20,17
-66,-5,-13,-52,-24,-37,-34,-25
-6,-1,-21,-28,-1,21,-65,-96
21,0,16,30,23,-9,32,63
23,-6,12,-16,11,-39,-34,73
4,4,-9,-27,-23,-1,11,7
-18,2,9,-2,-4,15,10,-39
-20,-3,-11,-10,-4,-4,-41,-51
-35,7,1,-8,1,-26,-71,-11
48,0,-4,-6,-6,3,43,10
-15,-6,14,8,-10,13,0,-3
-11,2,-10,-8,12,-3,-5,7
1,0,-23,4,10,-9,-17,13
25,-5,10,9,-3,6,16,4
-38,0,25,-7,12,-2,5,-3
-18,-2,-40,-29,-10,-9,-5,-13
16,-3,43,21,-2,-3,-18,7
15,-3,7,0,-7,-4,12,4
-17,0,-18,0,2,-6,9,1
-7,1,37,16,13,1,-2,-12
3,-2,-57,-20,-4,-5,-19,-16
4,-2,15,2,1,-3,15,26
-15,0,1,2,8,0,9,-2
-7,-7,-24,-10,-2,4,-6,-12
8,-1,30,4,1,-6,-13,2
-3,3,5,-10,-5,-1,12,7
14,-6,-64,-2,-3,-3,-5,23
-22,1,28,-3,-1,-2,-3,-26
11,-1,-63,-17,-5,-4,-8,-3
-1,-2,46,18,7,-1,4,-7
-7,0,61,13,7,2,3,-8
-5,5,-57,-8,-1,-1,1,10
5,-68,9,2,1,-4,-3,10
4,-19,-38,-6,-3,0,5,-2
-10,-15,4,6,5,0,0,12
3,5,39,-10,-5,-1,-2,8
-13,127,20,5,-2,-3,-6,-1
19,-39,-37,-5,-2,-1,1,6
-5,40,-1,-4,-2,-3,-1,-4
-11,41,-22,-7,3,0,-2,-11
4,-54,60,12,2,1,-5,10
11,56,16,18,2,-2,3,0
-17,111,-86,-14,4,3,3,-9
-1,98,19,12,4,2,-1,-4
-1,127,-28,-13,1,-3,-2,8
19,127,-7,-7,-1,-2,3,5
-21,72,-26,-7,-3,-3,1,-12
-4,52,4,-13,0,0,-1,-2
4,-27,17,18,-2,-3,-4,7
-9,-122,26,-13,0,1,4,5
2,-127,1,-9,1,-1,1,-11
-1,-128,-45,7,1,-2,-4,3
-6,-128,9,-12,-3,-2,-1,0
9,-104,-32,7,-1,1,0,3
-4,-118,3,3,0,-1,1,-8
0,-128,31,-11,-5,0,2,-3
-8,-128,0,7,0,-1,-3,-7
5,-79,-10,-11,-1,-3,-10,0
-8,-49,15,11,1,-1,-2,-4
5,-18,-1,5,-2,-2,-15,4
0,42,-21,-9,-2,-4,-12,-10
-13,29,-11,0,2,1,22,0
11,11,19,12,3,5,29,11
5,8,9,0,0,1,12,9
-5,0,0,3,-2,-5,-36,-9
2,14,-34,-13,-1,1,33,5
-1,-1,31,18,-1,-4,-17,-5
-5,4,-1,-6,-3,-4,-3,-4
0,4,-19,-10,-2,-1,2,-1
-2,3,-13,-18,-3,0,-18,-5
-2,-5,-2,1,0,-3,-5,-1
1,-7,-21,-2,-2,-3,2,-4
-3,-1,15,3,1,0,4,-1
0,13,12,2,-1,0,-6,-1
-5,-2,-33,-21,-4,-1,0,-2
0,2,-3,11,-1,0,-4,-6
-4,0,25,6,-3,-2,7,-2
-3,5,33,16,-2,-2,-5,-1
3,-2,-29,-18,-3,1,-1,2
2,-1,-11,-2,1,-1,-3,-5
-1,6,-15,-9,-2,1,8,0
-4,14,25,4,0,-3,-5,-1
-4,13,21,6,1,0,-5,-1
4,9,-44,-10,-2,-1,1,0
-2,5,8,15,0,0,8,1
-4,10,1,-3,-2,-3,-8,-6
3,9,15,5,1,-1,-3,0
-4,4,7,2,2,1,0,0
1,6,7,6,1,1,2,0
-2,4,-5,-3,-5,-4,-3,-1
-3,3,-7,-4,0,-1,-1,-2
-3,3,13,0,-1,-1,0,1
-3,2,6,-1,1,-1,-1,0
1,3,1,2,-1,0,0,-2
-4,0,8,-4,-2,0,-4,-7
-7,4,7,3,-2,-4,-15,-7
-2,2,-3,-5,-2,-1,-1,-16
-12,-2,-11,-7,-3,-3,-35,-27
29,10,2,5,4,11,60,85
5,3,30,6,0,5,36,5
1,-3,-7,-4,-1,-1,-3,11
-6,-1,-8,-1,-1,-3,3,-17
-18,-3,-13,-3,-7,-7,-39,-36
-1,-1,14,-2,-3,-3,-16,4
-1,1,-45,-2,-1,-2,7,-4
-2,4,4,-1,2,0,-11,-6
-4,-1,-6,2,2,-1,-7,-6
3,0,2,4,0,-1,4,4
-1,0,-3,-4,-2,-3,-7,-6
3,2,11,8,-2,1,6,12
0,0,-19,-15,-2,-3,-4,-6
-3,0,-6,1,3,-1,1,-8
-3,-1,6,-8,-1,-2,-5,2
5,-2,-12,-6,-2,-1,5,10
-2,1,31,19,-1,1,1,-10
-4,-4,-13,-24,-2,-2,-10,-6
0,1,-2,-2,-2,-1,0,2
3,1,5,0,-1,2,7,7
-4,-4,-6,-1,-1,-2,-7,-13
-2,0,-4,3,-3,-3,-2,-1
1,-1,5,3,-1,1,1,4
-1,0,3,-2,-4,-3,5,1
-5,-2,-5,-3,0,-1,-4,-6
0,0,-11,2,0,-2,0,3
1,1,15,0,-2,1,2,1
