-1,1,0,-1,-1,-1,-1,-1
-4,-2,-7,-2,0,0,0,-3
-2,0,13,2,1,0,-1,-2
-1,-2,-2,-2,-4,-2,-2,-1
0,-5,0,0,-3,-1,-1,-2
1,-2,-3,-1,-2,0,-1,-1
0,1,-6,-3,-1,0,-1,-1
0,-3,26,9,1,0,-3,-1
-1,-2,-27,-9,-2,-1,-2,0
-2,-1,4,1,0,-2,-1,-2
-1,2,-1,-3,-2,-2,1,-1
-2,-2,-6,-1,1,-2,0,0
-2,0,8,4,1,-2,1,1
0,-1,3,2,1,0,-1,0
-2,-1,-28,-8,-3,-2,-3,-3
0,-3,15,-2,-4,-1,0,1
0,-2,-3,0,2,-3,-1,-1
-1,1,-7,-5,-4,1,0,-1
-2,2,5,-2,0,-4,-2,-1
-2,-3,6,2,-1,1,-1,-2
1,2,1,0,-3,0,0,-1
-3,-2,-7,0,-4,-3,-1,-2
-1,2,7,3,-1,0,1,1
-1,0,-20,-5,1,-1,-1,-1
1,2,23,11,2,-2,-3,-2
-1,-5,-19,-11,0,-1,-3,-2
0,0,24,12,1,1,-1,-1
-1,-3,-16,-8,-1,-2,-1,-1
-2,-2,-6,-4,-2,-1,-1,0
0,1,5,0,0,-2,-1,-1
0,-2,-6,-2,-3,0,1,0
0,0,6,4,0,-1,-1,-1
-1,-2,3,-4,-1,1,-1,0
0,-1,5,-1,1,0,-1,-2
-2,-2,-4,0,-3,-1,-1,-1
0,1,1,2,1,-2,1,0
-2,-1,3,0,0,-2,-1,-1
-2,-1,-10,-2,-3,-3,-2,-3
-1,1,-3,0,-1,-2,-1,0
-2,-2,-9,-1,-2,-1,-2,-1
0,-2,-18,-9,-3,-1,-2,0
-1,3,6,6,2,0,4,0
-2,1,5,-7,-2,-3,-4,-9
-1,-3,-2,2,2,-1,-10,3
4,0,11,1,-3,-1,-2,-3
5,1,-5,7,3,6,19,3
0,4,1,-6,-2,5,2,11
-10,-2,-5,-2,0,2,-5,-2
-7,-5,-19,-7,-2,-10,2,2
2,-1,47,10,5,15,6,0
-1,1,-3,-3,1,0,14,-2
12,-4,-1,6,-4,-10,-53,-7
-8,2,-2,-3,-4,1,16,-4
-9,-1,-25,-5,0,-19,14,-1
15,5,15,2,6,20,18,-6
-11,-5,-1,-9,-3,10,26,15
0,-3,-4,2,3,11,-8,-5
4,-1,11,-7,-4,-12,-27,-7
-11,0,-8,0,-7,-16,-18,11
0,-1,-21,-2,-4,-34,-3,-18
4,2,7,-2,1,1,13,12
-3,-3,-14,-9,-4,21,12,-13
9,-5,0,-3,-3,-15,-28,2
1,-1,13,12,8,35,42,15
1,4,15,-4,1,-2,-43,14
2,-4,-40,-4,-1,3,8,3
-2,1,-7,-1,-1,13,-15,-21
-15,-7,6,-6,-5,-11,-21,-1
12,3,-13,5,3,6,31,0
-7,-7,24,0,-11,-13,-3,-8
15,1,4,1,-10,-67,-99,-7
-26,6,-5,-13,-6,18,-3,-26
-3,-5,4,2,3,20,13,32
-19,1,-1,-5,3,28,60,-2
0,-10,-5,7,9,18,51,19
-9,-5,0,-5,-10,2,-38,-12
-3,-6,7,-4,-4,-10,18,0
-3,-1,8,4,-5,-33,-88,-30
28,-3,5,0,-1,-13,-13,10
-13,12,-15,2,12,9,3,-48
-16,2,32,6,-3,7,-9,-32
13,-1,-20,5,6,6,-42,43
-12,6,1,-5,-1,6,42,8
11,-5,3,2,-9,-52,22,27
11,-1,8,0,2,18,-63,-13
-19,2,-11,-4,3,-6,-42,-13
-4,-2,-13,-7,9,62,49,10
15,-10,-2,-4,-1,-8,98,23
19,-1,-27,-9,-4,-16,-62,-16
-3,1,5,2,2,13,48,13
-24,-3,-31,-2,-7,1,-3,26
4,-6,47,-7,-10,-36,-46,2
6,-2,-25,-1,2,-6,33,11
0,-8,3,1,-1,8,-23,-41
-19,-8,0,-1,-9,-29,-92,-13
14,2,14,5,6,28,42,-9
-7,-23,-26,-21,-14,-6,36,8
2,-8,-8,0,1,-13,-27,25
5,-4,4,0,2,19,9,-17
-1,0,-11,4,-6,3,-49,-7
3,6,3,-4,-1,-16,7,-13
25,13,1,-3,-9,-28,-51,21
-3,1,7,-8,-5,-16,-46,-17
-3,5,-18,-4,-10,-35,-39,-9
2,8,17,6,3,-4,6,-7
-22,0,-11,-11,-6,-20,8,6
1,2,15,10,11,40,-8,-49
-6,6,-35,-8,4,47,53,-5
1,-9,-1,-5,-1,7,-8,7
-11,-9,10,2,1,6,-7,26
26,2,-6,-3,-3,-11,29,-18
-68,-15,-16,9,-5,-55,-91,-50
14,7,20,11,3,28,64,49
5,-7,-18,-9,-6,-11,35,2
1,-5,0,1,0,-14,-60,-22
28,14,2,12,14,36,104,60
-47,6,8,13,-1,-5,-70,-93
-4,3,13,-3,-3,29,-27,11
-38,-6,6,8,-4,-39,-3,13
98,4,23,-11,-1,67,1,67
-1,-18,-15,-5,-7,-25,-35,19
58,4,-7,-9,-10,4,-15,-34
-57,2,-12,-1,2,-6,74,55
26,-6,-1,-7,7,31,-33,-64
-41,4,7,20,18,34,25,93
-25,-2,17,4,2,-32,-7,25
97,-4,-38,-4,3,9,-16,49
87,4,15,2,-4,-24,28,86
-61,-16,8,4,-8,-30,49,-55
-23,8,-8,16,12,36,-4,-30
15,3,-4,-3,10,75,31,-96
-3,1,-9,3,14,13,65,52
65,0,-40,-17,-19,-73,-57,-49
6,-2,33,4,8,48,58,38
53,14,13,1,-14,-57,-40,-87
-27,-10,2,-6,-7,9,-32,76
-58,1,-16,-11,1,42,30,-78
41,2,6,5,-1,-6,-39,-30
-15,-8,10,12,13,46,-4,14
57,17,-3,-3,-1,-29,-41,39
-76,-9,13,-6,1,2,2,1
-65,-19,-25,-16,-7,-29,11,-109
-85,-11,1,-9,-10,-73,4,-16
22,2,12,-1,-13,-28,33,73
-66,-17,-11,-4,-8,-28,50,3
38,-21,11,10,10,-25,-85,-85
-30,28,13,8,6,95,79,-13
19,-36,13,-13,-5,17,-52,-98
79,0,-23,1,2,59,42,21
-18,8,13,0,-3,2,14,-17
-23,0,21,5,-8,-33,-78,32
-69,-5,8,16,19,49,58,-13
-85,-3,8,1,-1,-41,-64,-80
74,38,38,4,10,121,17,-13
-19,0,11,11,8,5,9,67
68,3,-44,-12,-14,-18,-118,-93
32,-17,3,1,12,8,-25,-20
-6,0,-31,-26,-10,27,103,119
-49,-22,-6,-3,-7,-41,22,-3
-15,-20,6,-1,-2,85,2,-20
83,32,15,19,23,-2,-12,19
51,17,13,11,4,43,-20,-85
10,-17,7,-6,-4,-9,20,67
-53,-13,-2,-4,-16,-22,-10,-32
8,-15,3,-11,-14,63,-32,0
68,17,16,13,9,-88,-30,34
20,29,-12,-11,1,6,36,-23
0,25,-1,5,-2,-53,-42,-55
103,18,19,12,26,53,-1,127
29,-10,-20,-5,-4,-11,23,-29
-76,-12,7,-9,0,-59,-74,-33
59,21,-45,-17,-19,-86,-52,96
80,33,37,12,-2,-53,67,41
-54,-11,-32,4,11,49,8,-16
22,-12,-3,3,-3,-58,-53,11
-80,1,1,0,8,88,68,-42
53,-8,-13,-7,-8,-40,2,24
-118,-6,-8,4,11,85,71,-72
127,19,36,-18,-9,-21,-49,68
-100,-21,2,10,8,-70,13,-60
58,-7,-65,-35,-54,-111,-28,21
1,-2,41,13,8,-74,-83,48
-60,-26,-15,-9,0,118,2,48
-42,24,24,-7,-27,-21,-70,25
-28,2,-24,0,26,77,-6,10
35,-5,-19,-10,-17,-89,-48,-72
-12,-11,35,7,-20,-35,72,51
73,-26,-82,3,2,-48,-27,62
-65,5,37,0,-10,-69,-20,-33
51,2,-11,-9,-15,30,14,127
60,27,-27,10,20,74,43,-128
-78,-38,112,1,-11,-68,-65,-65
-98,1,43,12,7,-34,56,-53
-36,-42,-89,-30,-12,-6,-85,-9
-42,45,-2,-10,-22,-27,28,-62
74,6,-36,-18,0,79,98,-18
52,15,16,8,0,32,77,73
-35,-6,57,2,-25,-62,-89,-38
-29,-36,-3,6,5,-70,-50,56
-47,-3,0,6,16,7,56,-72
-86,-1,-56,-33,-3,68,-117,-128
97,-5,-69,10,8,-44,72,62
24,-14,6,8,15,65,-4,-49
-22,-5,32,16,8,-25,-38,-26
8,-18,54,6,-13,-128,-16,-7
-69,6,50,8,-6,-31,72,89
-49,-25,-90,-30,-4,19,2,-103
68,19,-45,-4,0,-76,-41,72
57,9,23,6,3,83,1,15
3,3,24,0,-16,-87,-51,-42
77,0,-14,-4,1,-91,9,53
-1,2,38,4,1,15,34,11
-20,2,-66,-1,7,-16,13,17
72,25,10,1,3,-44,69,7
77,-10,32,4,-1,74,-45,107
8,8,2,9,12,-32,2,-90
61,-5,-9,-7,4,3,-85,-123
73,11,6,7,16,127,45,33
58,3,-11,9,-1,-34,3,-48
44,13,41,14,13,23,97,58
-58,-18,-30,-3,2,115,17,-34
12,-8,20,8,-3,-23,-93,-27
38,44,5,5,30,117,46,103
-64,-6,2,16,13,-12,-17,-122
67,1,-18,-24,-19,-71,72,107
-82,-8,-30,-22,-21,-105,29,-87
-42,-32,19,3,0,77,-59,-56
40,-15,23,-4,-3,76,3,-17
-9,16,1,2,-19,-101,-57,11
-29,-6,-15,-23,-9,40,-56,-46
65,52,14,-6,-19,-22,119,44
76,2,5,6,24,94,-14,-76
24,-6,28,8,-8,-35,-19,-26
2,9,9,-12,-9,-23,-28,-73
49,-14,-39,-3,4,49,16,7
-36,31,-19,-4,0,-43,71,74
-33,-14,6,3,5,78,-51,34
97,1,-10,-6,-9,-40,1,14
-124,-27,3,-4,8,1,42,-88
-7,1,-39,-13,-3,2,-3,-40
-3,17,-33,5,18,87,11,-20
-47,13,23,18,18,-3,-40,-33
41,-2,-6,-13,-7,-13,-66,37
-28,-5,9,-2,-14,-89,-35,52
-31,8,26,27,22,-48,-46,-128
-84,-14,0,2,6,-18,-50,12
14,17,-27,7,11,33,76,18
54,-1,-46,-22,2,73,-30,-94
115,3,98,8,-16,-97,68,109
-13,-28,-100,-25,-10,-103,-58,-93
42,14,19,20,27,26,29,-95
49,-23,-17,-9,-16,-37,25,85
31,16,78,22,-1,-17,26,62
71,-2,42,7,9,11,98,20
-57,-33,-42,-19,-15,27,-77,50
55,21,-17,-13,-11,-27,11,-56
36,-17,-59,-29,-2,82,-46,-67
58,10,66,39,-10,-41,-42,48
-15,-11,-60,-42,-23,-128,-108,-9
91,12,28,1,-5,-48,-36,-18
2,-4,-60,4,35,86,-43,71
83,8,28,-9,4,7,-36,127
46,-12,18,4,-29,-128,-68,-113
-107,-26,29,5,-4,59,60,83
23,-2,-48,-17,-29,-114,-46,32
-60,-13,-31,-1,9,70,30,-103
87,28,-5,-1,-20,5,68,54
23,-17,15,4,-8,-64,29,-70
48,-3,-6,-17,-17,-24,-80,-80
99,-5,-15,-2,14,53,59,115
-29,3,19,-3,-24,-96,-69,-110
-122,-9,-9,-4,8,44,-35,-8
13,-10,-61,-9,-3,10,43,-39
-126,-34,-5,4,-11,-57,-72,-128
33,-10,16,-3,-2,51,126,74
-23,-22,-31,-8,-10,-66,-31,59
-73,-23,15,-8,-23,-95,-15,-23
70,-18,-61,-13,12,-2,5,-28
-107,-70,-13,2,-15,-100,-56,-128
14,36,-10,6,21,84,23,44
-62,26,-2,-10,3,70,120,-14
79,72,24,28,11,-22,55,29
37,-31,-4,25,13,-15,-60,-86
28,23,-4,-7,-11,-53,-2,-41
14,-36,99,23,10,3,60,-13
-51,18,-18,-2,-9,14,35,45
-15,-4,26,28,41,14,13,4
-34,-32,2,2,-6,22,-24,-68
57,33,-49,11,26,55,-21,25
-43,-4,24,1,-8,-18,-38,77
56,26,7,-3,13,108,67,13
-7,-37,-10,0,-1,25,0,-81
-46,9,-50,-5,4,54,45,27
-33,-7,14,-1,-7,30,31,15
-35,25,-15,-10,-1,-11,-7,10
102,39,-5,-4,-5,-25,-21,44
58,29,19,-3,-5,-12,-10,50
-33,-19,12,4,3,15,-18,8
-11,8,3,1,1,-32,-22,-11
-63,-11,-18,-13,-7,-9,-42,-15
-75,-17,23,13,-4,-53,-37,-99
20,-6,-9,-23,0,52,37,14
6,-2,5,-7,-5,4,3,22
-2,-7,-2,14,7,-21,-6,41
-4,-48,-29,-10,-8,-26,-14,-28
22,-5,4,-4,8,49,24,-18
-16,-16,4,-3,-7,-16,-16,-19
16,6,4,-5,2,-9,-24,23
5,17,18,6,-3,-42,-16,-15
-29,7,22,2,0,7,29,-10
-1,1,-30,-19,-8,-1,-3,23
-15,21,-4,1,-7,-7,-4,-18
20,14,8,2,-1,-9,3,15
-9,-7,-31,-6,-3,-6,1,-29
-11,34,52,13,0,-20,-9,2
8,4,16,2,2,4,3,-15
0,-13,-3,-9,-9,9,-7,-4
3,20,-13,-6,4,8,-3,-8
-5,22,-2,-1,-3,13,-6,8
-13,-7,0,-1,1,-3,-4,2
3,-7,-10,2,0,-11,3,-2
-9,1,4,-1,-5,-54,-1,-9
3,-10,5,0,2,-45,-5,8
-2,-6,21,8,2,-22,0,11
-4,17,9,-19,-5,-13,-3,-10
6,-5,-17,3,-6,3,3,20
-5,2,6,5,0,1,-8,0
5,1,-19,8,15,17,-1,13
1,-12,27,6,1,8,2,0
-7,-15,7,-1,-5,12,-3,-19
-1,-5,4,-4,-3,9,-3,1
-5,-33,-29,-16,1,12,-2,10
-1,-41,24,15,-1,8,2,-3
-4,16,-7,-36,-9,-1,-1,-12
-1,56,1,16,-14,3,-1,2
2,50,6,10,13,6,1,2
0,33,-8,10,3,-1,-2,-4
-1,1,-6,4,8,-6,-3,-8
-4,-34,-11,-67,-28,-11,-8,-1
-2,34,31,39,13,1,1,0
1,98,-9,17,-1,0,3,0
-2,-18,14,7,-5,2,1,-5
-2,-75,47,30,8,-2,0,-1
-4,24,-20,-32,-17,-7,-4,0
0,-48,-20,-5,-6,0,0,-1
-1,-40,19,14,23,3,1,-4
-3,-71,25,-8,1,-6,-3,-1
-6,-76,-20,-57,-44,-13,-8,-2
3,-41,5,40,53,7,5,0
-4,-11,-16,-7,-9,-6,-4,-8
-1,-16,-20,-3,-3,-4,-2,0
0,-36,28,32,13,4,4,2
-3,-19,-8,-31,-28,-7,-3,-2
-3,6,-5,1,-8,-3,-3,-3
-1,78,14,3,-9,-1,0,0
1,64,-19,-2,16,-1,0,0
-2,15,-20,-24,-8,-4,-4,-2
0,5,21,24,7,3,1,-1
-1,5,-9,-8,0,-4,-3,0
-2,-5,4,0,-13,-4,-3,-1
-3,-14,-5,-9,-5,-3,-4,-4
-2,-6,-1,-11,-3,-4,-1,-1
-2,26,-15,-3,3,-1,-1,-3
-2,3,-3,-1,-9,-1,0,-1
-1,1,-3,-13,-26,-8,-3,-3
1,20,-19,-5,19,4,-1,-1
-1,14,9,31,28,4,1,2
-1,-8,-10,12,13,3,2,3
-2,-3,24,-20,-22,-3,-3,-1
-1,13,-7,7,-11,-5,-3,-3
1,5,-23,-16,-17,-1,-2,0
3,-7,10,26,23,2,0,0
0,4,-18,-13,13,-3,-3,-2
0,11,13,16,-15,5,3,1
-1,-1,-19,-8,-4,-3,-2,-4
-1,-3,23,-10,-20,-5,-3,-2
-3,-1,-10,-3,11,-1,1,-1
-3,3,7,8,3,-3,-2,-4
-1,0,-13,-10,-13,-1,-1,-2
-1,0,12,5,7,3,0,1
0,-3,33,35,13,2,0,2
-2,-14,-53,-13,3,1,0,1
-2,-4,-9,-3,-6,-4,-3,-3
-2,-7,3,-17,-2,-5,-4,-2
-3,-2,1,3,-12,-2,-2,-1
-1,8,10,-12,-17,-3,-1,-1
0,5,-5,11,15,3,1,1
-2,2,-3,-3,-5,-3,0,-2
-1,2,-4,-11,-4,-3,0,0
-2,5,0,-4,3,-1,-1,-1
0,0,-10,-1,-1,0,-1,-1
0,-5,11,-7,-12,0,1,-3
-1,-8,-12,0,-1,0,-1,-2
-2,-6,8,-7,-2,0,-1,-2
-1,-5,19,15,13,-1,-2,0
-4,-12,-30,-4,-10,-2,-3,-2
0,-1,-3,0,6,-1,0,0
0,0,1,-10,-6,-4,-1,-1
0,3,1,5,6,-1,1,0
-1,2,3,1,-2,-1,0,-2
-2,-2,-8,-3,-2,-1,1,-3
-2,-1,2,-9,1,1,-2,0
-1,-1,4,10,-3,-1,1,0
0,-9,-4,-1,3,0,0,-1
