-3,-2,-10,-1,2,2,0,0
-2,-3,-1,-1,1,-1,-1,-2
-2,0,-7,-1,0,-1,-2,1
-2,-1,-5,-4,-1,-4,-2,-2
0,0,10,3,-1,-1,-1,1
-2,-1,-3,0,0,-2,0,1
1,-2,-3,0,-3,-1,-1,0
-1,-2,2,1,1,-1,-1,0
0,0,1,-2,-2,-2,0,0
-1,-1,-3,0,-1,1,-1,-1
0,-1,-8,0,-1,-1,0,-2
-1,-1,-7,-1,-2,1,-1,0
-2,-2,-2,-1,-1,-1,-2,0
-1,0,3,-1,-1,-2,-3,-4
0,-1,1,-2,-2,-2,0,0
-2,0,-1,0,0,-2,-1,0
-2,-2,0,-1,0,-1,-1,-2
-1,-1,3,1,0,0,0,-2
-2,-4,-6,-4,-2,2,-2,-4
-1,-3,2,1,-3,-1,-1,-3
-1,0,-5,-2,-4,-2,-3,-3
-1,-1,4,-1,-2,-1,0,0
0,0,13,2,0,1,0,0
-1,-1,-13,-3,3,1,2,1
-3,-1,16,0,-4,-3,-2,1
-1,-1,-6,-3,-2,-1,-3,0
-3,0,-6,-2,1,-1,1,0
0,-2,-8,-3,0,-2,-1,1
0,-1,16,4,1,0,-2,-2
0,0,-3,-1,0,2,-2,1
-1,0,16,3,0,0,-2,0
1,0,-7,0,-2,-1,-1,-1
-1,-1,-14,-4,-1,-2,0,-2
-3,-1,-3,-2,-2,-1,-1,0
-1,0,-1,-2,0,-1,1,-3
-1,0,1,-2,-3,-2,-2,-1
-1,-1,-3,0,2,1,0,-1
0,0,2,0,0,0,1,-1
0,0,-1,0,-4,-3,1,-1
-1,-2,-3,-4,0,-1,-4,-1
1,-2,3,-2,0,-2,-1,0
-1,-1,8,3,-1,1,-2,-3
-1,-3,-4,0,-2,-1,-3,0
-1,-1,2,-1,-4,-2,-1,-2
0,0,-10,-5,-3,-4,-3,-1
0,-2,-4,-3,-1,-1,-2,0
-3,-3,-7,-4,0,1,-1,0
-1,-1,9,1,0,0,0,0
0,-1,1,1,1,0,-1,-1
0,-1,-7,-3,0,-4,0,-1
-1,-1,1,1,0,-1,-2,-1
-1,0,3,2,0,1,0,-1
-1,0,-6,-3,-3,-3,0,-2
0,-2,-2,-1,0,0,-1,-1
1,0,-6,-2,0,-1,-1,-2
-2,-1,1,-1,-1,0,0,-2
-1,-2,-8,-2,-2,0,0,-1
-3,-2,0,0,-2,0,-3,-1
0,1,14,2,-2,0,-1,-2
-1,-2,-14,-4,-2,-1,-2,0
-1,1,-3,-1,-1,-1,0,1
-1,-2,-11,-6,-2,-1,-3,0
0,-1,13,3,-3,-2,-3,0
-1,0,4,3,4,1,0,-1
-2,-1,6,0,1,-1,1,-1
-2,-2,-7,1,-1,-1,0,-2
0,-4,-9,-3,-3,-2,-1,-2
-1,0,-5,-3,-3,-2,0,0
0,-1,-12,-4,-1,1,-3,1
-1,2,13,0,0,1,-1,0
-2,0,-4,-1,-3,0,0,-1
0,0,3,-1,-2,-3,-1,-1
-1,-2,1,-1,-1,-2,-2,-1
0,-3,-8,-2,-2,-3,-3,-1
0,-2,-15,-5,1,0,0,-1
0,-2,8,-1,-1,0,-2,-2
-2,0,2,2,-4,2,1,-1
0,1,-10,0,-3,-2,0,1
-1,-4,20,3,2,1,-1,0
0,-2,-6,-3,-1,-1,-1,0
0,-3,-4,-1,0,-1,1,-1
0,0,1,-1,0,0,0,-1
-2,2,-6,-1,0,-3,-3,-2
-1,-1,2,1,-3,-2,-3,-1
-1,-3,2,-2,0,0,0,-3
-2,-1,7,0,1,0,-2,-2
0,-1,-1,-5,-3,-2,-5,-1
-2,0,-1,0,-1,0,-1,1
0,0,0,0,-2,-1,0,-1
0,0,2,-1,-1,0,0,-2
0,-1,-10,-1,-1,0,0,-1
-1,-2,-6,-3,1,1,-1,-3
-1,-1,-2,-1,-2,-1,-1,0
-1,-4,0,-1,0,-2,0,-1
-2,0,1,1,1,-2,0,-1
-2,-1,-3,-2,-2,-3,-1,-1
-2,-2,-2,-1,1,1,-2,-1
-2,-4,-4,0,2,-1,0,-1
-1,-1,-1,-1,2,0,1,0
-2,-1,2,-1,-3,-2,-1,-1
2,-1,-9,-6,-3,-3,-2,-3
0,-1,3,1,-4,-1,-2,-1
1,-2,9,1,5,1,-1,0
-1,-2,0,-9,-2,-2,0,0
-1,1,-2,2,-4,0,0,0
1,6,8,3,0,2,1,0
-4,-2,-30,-7,-5,-3,-1,-5
-3,-3,-8,0,-2,0,-2,-4
1,9,14,-6,-2,-3,1,3
1,-1,-50,-11,-4,-3,-3,-1
-9,-9,30,15,1,0,-2,-2
6,-5,-4,-5,-6,-1,-3,0
-12,-13,-17,-5,0,2,-1,-2
9,33,17,4,-2,-5,0,-2
7,-10,24,-1,1,-4,2,4
-4,-2,-58,-15,-6,-3,-1,1
0,-2,-5,1,-2,-1,-4,-2
-13,-15,-3,2,0,-4,-5,-6
10,7,4,1,-5,1,4,4
0,1,34,7,1,-5,-3,-4
1,-18,-16,-6,0,2,6,1
2,-12,5,-3,-3,0,3,-1
-20,7,-14,3,-1,-5,-17,-11
0,14,20,5,-1,-2,-2,2
3,2,-21,-5,0,-4,-2,3
-10,-47,8,-9,3,7,-4,-6
10,17,9,-2,-10,-5,-8,1
1,15,8,3,4,3,5,-3
-14,6,-12,7,1,10,27,0
9,-48,17,2,-2,-11,-15,2
0,-31,-72,-8,-4,6,15,-1
-12,-20,-9,-20,1,-1,-19,-16
28,13,26,9,2,-2,-8,25
0,10,2,4,-3,4,19,4
5,-21,-22,-40,-11,-7,-7,2
-3,8,23,13,1,-3,5,-6
-13,-21,-7,-3,0,-4,-22,-19
-5,27,-6,5,3,7,7,-3
3,44,36,24,10,3,6,-1
-1,-5,-31,-16,-12,0,10,8
-9,32,6,-18,-1,-5,-6,-2
3,8,-41,-14,-7,-10,-53,-5
-2,-30,23,18,-3,0,40,-6
28,-11,-16,-6,10,15,45,32
5,-31,100,35,9,-1,19,6
4,-35,-70,-19,9,9,41,0
-12,-36,14,-24,-15,-20,-49,-14
-16,-49,-3,13,-5,-9,-34,-20
19,0,-17,-1,0,2,-7,7
4,45,20,11,0,5,15,10
-2,60,78,17,5,2,-13,-3
-7,2,-60,-12,-2,-1,8,-5
-16,41,-55,-17,-7,-1,6,-14
-30,-2,3,-2,-3,-13,-67,-14
14,-16,-28,5,5,9,87,17
0,-5,28,-2,-5,-13,-3,-1
-11,6,17,-3,-4,11,18,-7
-1,-21,51,28,6,-37,-73,-3
-8,-17,-69,-22,-3,34,90,3
-11,-45,-66,-19,-3,22,-13,-14
10,-2,36,-8,-5,-30,-76,-2
27,32,69,34,-2,34,112,27
-50,54,-3,36,23,8,-30,-27
47,7,64,6,-12,-6,29,10
2,-85,-84,-28,5,-7,6,38
17,-37,-26,-28,-26,-20,-48,0
-21,4,15,-13,-7,-13,-65,-16
-67,27,73,8,-7,-2,-17,-23
56,104,-22,18,8,13,2,-11
2,-57,42,-17,-13,-20,-21,18
-9,-91,-97,-33,-8,-1,41,-16
8,-17,-5,2,-2,7,-68,6
-43,47,38,-2,-11,-6,75,-22
-12,10,-86,18,18,32,24,-30
-14,127,-81,-51,-28,-29,-73,4
36,-11,88,26,50,-9,-1,23
-31,-77,-53,10,-11,-18,-17,-4
-21,35,-34,9,23,25,47,-10
20,-22,6,12,0,-15,-21,33
38,-20,64,40,-6,15,54,-4
5,8,-24,-6,28,24,1,0
-29,-42,17,7,-10,-10,4,-8
59,65,80,56,19,16,17,6
-47,13,-103,-29,-3,-23,-60,8
-44,-82,57,91,13,6,1,-22
9,18,-14,-110,-2,-2,-5,15
14,-54,50,11,-6,-8,-20,5
9,-26,-46,-60,-5,16,64,-14
0,-33,-26,17,-7,-19,-76,-43
-21,38,-34,-31,-3,31,39,21
59,-28,19,1,5,-13,18,33
3,-17,-4,36,6,-13,26,29
-31,47,55,-39,-21,-2,3,-21
15,27,23,19,-13,-17,-13,-27
-14,28,-65,-58,-3,22,-2,-52
-9,7,25,57,36,12,11,84
39,29,22,-26,-8,-7,-8,21
-5,-95,27,49,13,-1,4,8
-6,73,55,35,-6,-13,-7,-31
6,66,-46,-18,-23,-19,-82,-47
22,-48,-12,-39,-11,28,69,25
-1,-48,-14,1,17,-21,-85,-13
12,-128,24,26,4,-13,26,24
-52,-21,20,-5,-20,-22,-61,-58
40,-72,-54,-28,5,14,70,55
-75,56,31,-10,-17,10,-23,-64
-4,-85,-25,8,-3,8,71,12
-34,-31,48,-14,-11,-15,-30,7
40,-16,-20,26,-1,-11,-81,-4
-12,-99,-9,23,2,10,-11,-15
-7,-55,2,-16,-4,-5,-50,22
14,25,-44,-37,1,17,57,-24
-77,32,18,18,5,7,48,-37
75,95,41,22,13,1,23,69
-11,82,51,10,-10,14,-27,3
16,15,-89,1,-18,-8,32,16
-4,60,21,12,35,18,77,25
20,127,-12,-12,-18,-8,19,-7
-94,102,-29,-8,26,17,-21,-48
45,36,-10,-13,3,4,-30,25
-25,-31,3,-77,-62,-17,-5,-14
82,-101,4,95,69,34,92,40
-48,-13,-5,-8,-26,-29,-67,-20
77,16,26,30,47,33,2,-11
-3,18,-14,9,-18,-15,7,33
-3,-108,-30,-43,-24,-20,-27,-14
-9,-65,-28,-49,-9,-18,-11,-21
-35,10,41,20,16,5,-62,31
17,-40,0,-30,6,67,84,-5
-1,127,19,4,-29,-61,-78,22
60,71,40,11,18,12,86,26
-77,47,-29,17,15,-11,-9,-55
-19,-2,28,86,44,35,14,32
-30,-74,-73,-70,-50,-9,-37,-48
31,-61,26,25,25,32,22,9
-65,-54,6,-68,-50,-42,-34,-36
0,-53,-25,34,-7,-32,34,-7
68,-25,-28,-89,-42,-18,-38,41
-100,-29,31,103,71,9,-39,21
124,-48,-11,-12,-9,15,66,85
-81,-15,22,26,-1,37,33,-112
-12,21,19,-20,-20,-48,-55,4
-1,-29,-3,-56,-24,4,60,55
-21,-39,-8,-11,-38,-21,-54,-102
52,11,-10,-5,16,-50,62,127
-51,3,-33,29,15,43,64,-63
44,-47,1,-48,-15,-31,-82,-52
-113,-29,-19,9,4,4,-9,-110
85,18,17,-13,-34,-29,-121,1
43,-3,81,56,58,-27,-33,122
-16,-10,-53,-42,-52,1,50,-7
-44,10,2,-26,-34,11,78,-44
43,7,-16,11,27,-9,-128,-68
-13,-3,24,49,57,33,53,14
3,6,-2,-14,-28,-39,-54,-22
-38,2,47,34,6,7,40,30
69,1,-23,-52,-5,-4,-75,34
-125,0,-9,-14,-2,27,56,-91
-35,-2,-88,-27,-60,-44,-104,-116
127,-8,44,2,11,-31,-21,121
-66,-3,23,-17,-38,-46,-81,-75
37,9,15,34,23,20,95,89
-3,-3,-12,-6,-15,51,66,-31
9,-9,14,42,75,26,66,24
-106,4,8,6,-10,-20,-17,1
-20,-5,10,-72,-59,-22,-36,-46
37,-2,32,104,33,20,15,8
-1,-6,-18,-57,-42,-16,7,26
-82,1,22,97,80,42,67,-59
-2,8,-54,-49,-45,22,29,-58
26,-4,4,-56,9,-41,-37,115
-86,5,42,50,6,-7,2,-77
9,-3,-8,-4,13,8,81,71
-41,1,47,12,14,13,37,-22
71,0,-12,13,46,25,76,110
47,0,-20,-23,-4,-20,-94,11
-57,-7,-9,-28,-31,-20,3,-29
41,1,-16,25,-7,-22,-50,-1
-88,-2,-18,-21,5,20,75,-67
-19,-6,-35,-40,-22,16,-6,-74
127,0,-2,-26,-31,-10,-11,96
-44,-4,9,50,12,20,-54,13
103,-6,25,65,37,-7,22,98
-29,-3,0,-40,-73,34,127,-49
-20,6,-65,-36,-5,-47,-116,-77
-18,0,7,69,53,13,67,0
56,2,2,-13,-10,-83,-128,-49
115,-1,-17,35,28,10,96,91
-59,7,8,-52,-12,-11,-51,-55
20,-5,-25,-42,-36,22,98,-79
50,-2,3,69,68,4,-28,49
27,-2,-27,4,-5,25,96,-66
-34,0,1,-7,25,7,-72,-60
90,3,19,47,-14,5,94,83
-128,2,39,-28,5,33,70,29
85,-4,-76,-31,-50,-32,-101,-43
18,-5,4,21,-7,27,64,28
-75,-2,28,-4,-16,-29,-128,-84
-5,-11,3,4,-3,-8,57,44
-75,-5,26,-35,19,-40,-53,78
-98,-2,35,63,19,38,78,-79
95,-2,-39,-75,-74,-54,-109,-56
33,-4,9,8,9,9,20,-1
-58,-5,30,98,57,70,72,32
75,-4,-17,-21,16,-10,-52,20
-3,-2,18,-7,57,34,105,91
-128,-2,-6,-5,0,19,-44,-128
118,6,-23,-6,-12,-27,11,114
-11,-2,1,-21,-4,-5,-30,-20
-56,2,-49,-21,-13,-14,-27,-15
-83,-2,-21,-95,-62,-21,35,-76
-33,-1,14,47,-17,-31,-104,-110
100,-7,52,100,75,8,83,127
75,-6,-39,-26,5,-19,-25,-2
-13,5,4,-38,-49,-7,-48,-2
-43,3,4,-15,-19,-6,15,-14
-19,-2,9,-20,-17,1,27,-25
-28,2,-6,-18,-36,1,-91,-13
19,-4,45,7,18,28,60,28
34,-8,-52,-47,-12,-14,-90,-50
53,-2,0,-12,-22,-20,45,52
-84,4,-5,9,28,5,9,-6
-15,-2,-9,-20,-29,-10,-31,-8
-77,0,39,16,8,34,90,-24
-41,-3,0,-14,6,11,-45,-9
-17,-6,-5,4,8,7,28,-49
96,0,2,21,6,-12,-20,107
-15,-1,31,22,20,3,20,22
-5,0,-28,-32,-28,-8,-9,-43
-24,-1,10,6,15,13,46,-7
15,6,17,30,14,21,11,-35
-28,-2,-11,-15,16,2,-6,20
-16,-5,3,7,-23,-3,10,-8
6,-2,26,7,-3,-13,-32,-5
-8,0,-48,-12,-8,-7,11,-20
7,-3,22,-4,2,-5,-22,35
-3,2,-40,-33,-17,2,6,-17
13,-3,40,19,6,6,28,26
8,-5,-46,4,-1,-4,-11,-15
-4,-2,20,9,15,-1,6,1
27,3,-45,-24,-15,-22,-1,5
-28,3,15,5,6,33,17,-1
-18,2,-25,0,-6,7,4,-16
-4,7,20,16,0,-2,-26,-24
2,7,-41,-15,-13,1,16,38
12,-1,-71,-27,-12,-21,-9,6
19,26,23,1,0,7,0,-13
-2,19,10,9,9,-1,2,-7
-4,-9,9,4,-2,-1,-5,-6
2,-34,18,7,5,-3,9,10
7,34,-67,-15,-6,3,2,5
-11,-124,49,-1,2,-7,-3,6
-10,71,0,2,-6,2,1,-10
1,117,-85,-9,2,-7,-5,-1
5,111,23,11,1,0,3,2
1,127,-3,-10,-1,-4,-5,15
-5,115,8,-9,-5,4,2,-19
-1,-90,98,21,0,-6,0,-2
-6,-128,50,-19,-4,0,0,13
-2,-69,-32,-4,6,2,3,7
3,-84,6,-4,0,3,3,4
9,-11,-11,2,4,-7,-5,2
-3,-54,6,1,-1,7,0,-7
-2,3,-21,-8,-4,-8,-7,2
-2,-38,29,4,-1,-11,-2,-6
6,-41,45,13,5,14,2,9
-6,-34,-7,-2,-1,0,2,-7
-4,-42,-64,-12,-2,3,1,6
-9,-63,28,13,-1,-6,-2,-13
-2,-28,-3,-7,-4,-6,-1,1
0,-41,5,-2,-2,0,-3,3
-6,-15,-28,-4,-2,-5,-3,-4
-5,-40,-18,-15,-4,4,1,-3
6,-17,1,-3,-2,-5,-1,4
3,-102,21,29,-1,-3,0,-6
-4,-122,-32,-26,0,-2,-2,0
5,-128,-21,15,-3,5,0,2
-9,43,-7,-12,1,0,0,2
2,40,-8,-9,-6,-6,1,0
2,17,2,12,4,3,1,-2
-15,-45,8,-2,4,7,1,-3
2,-52,-3,4,-4,-7,-2,0
1,-24,-8,-1,2,-1,0,0
1,-10,24,7,1,1,-3,-6
5,10,16,-2,1,2,2,6
0,-8,-24,-2,-3,-5,-2,-2
-2,18,-11,-3,-1,-2,-3,0
2,14,-17,-13,-3,4,0,3
-8,29,35,18,1,-3,-1,-6
-2,10,9,3,1,-4,2,1
4,-1,13,1,1,-1,0,-1
-3,33,45,17,3,-1,1,2
-2,21,-17,-10,-1,2,-2,-6
3,5,-31,-14,-5,-2,-1,1
2,26,45,10,1,-1,-2,-4
-3,29,-22,6,-3,-2,-1,-1
0,32,28,0,-2,-1,0,0
0,2,-1,-2,-1,1,-1,0
-1,12,-29,-9,-4,0,0,-1
-6,16,20,7,-1,2,0,0
3,9,-4,2,-2,-2,-1,-1
0,1,-25,-9,-2,0,0,1
0,13,7,4,-1,-2,-3,-4
-1,4,-24,-16,-4,-2,-2,1
