0,-2,-3,0,-3,-3,1,0
1,-2,-14,-2,1,1,4,-2
0,0,0,4,2,-2,1,-2
0,6,2,-2,-4,-4,1,-1
-4,-8,-7,-7,-2,-1,0,-1
0,0,-6,-2,-2,0,-2,1
0,-4,4,3,3,5,2,2
0,2,-11,-6,-6,0,-2,-2
1,6,7,6,-1,-4,-3,-1
-3,-6,-27,-8,-4,-5,-3,-1
-1,9,2,-3,6,2,3,-2
-3,-15,-10,1,0,4,1,0
2,1,41,15,6,2,3,0
-16,-31,-17,-24,-19,-13,-11,-10
-4,-4,-10,-6,-7,-6,-7,0
-1,0,-4,0,1,2,0,1
1,1,9,1,0,2,2,1
5,32,17,8,11,5,5,2
1,1,19,0,2,0,-1,-1
-3,-2,-18,3,-9,-8,-4,-2
-1,-10,-29,-18,-9,-4,-4,-4
3,-2,12,6,6,4,1,0
-1,-2,-16,-7,0,-3,0,-1
2,13,20,0,-10,0,1,-1
-5,-4,-6,9,12,4,-2,-3
3,0,-10,-9,-8,-2,-1,3
3,6,19,8,0,0,-2,2
-3,-10,-5,-11,-5,-4,-2,1
-7,-6,-8,-11,-14,-6,-5,-4
2,9,13,2,4,1,0,-2
-2,-5,7,5,4,-1,-1,2
5,1,-19,-3,0,-2,-1,0
-7,-5,-4,5,0,0,2,-1
2,-2,-21,-3,0,-3,-2,-1
-3,-4,-18,-3,0,-1,0,-3
-4,4,19,-2,3,2,0,-2
2,-3,-10,5,4,-3,-1,1
0,-5,-13,-6,-9,-3,0,0
-3,-2,-4,-1,-2,0,0,-4
-5,-9,3,-4,-2,3,1,-3
10,15,8,5,5,4,0,3
-1,-1,11,7,-5,-4,-1,0
-4,0,-3,1,0,-4,-3,-2
-9,1,3,-4,1,-4,-3,-5
5,-6,1,-1,3,3,0,0
11,2,0,-2,-1,0,0,5
3,-2,-5,-1,-8,-6,-3,-1
-5,-2,-5,-8,2,0,-4,-1
-11,-7,-11,-6,-6,-6,-4,-5
-5,6,14,16,24,7,2,-8
-3,6,8,6,-1,2,2,1
9,-10,3,3,-1,-1,2,5
-6,-7,-11,-12,-11,-6,-3,-4
-7,0,4,-5,-7,-5,-3,-2
-7,1,-1,11,5,7,3,-3
7,9,4,4,1,-4,-3,1
15,7,1,-3,-4,-1,-2,6
-6,-14,2,-8,-15,-4,-4,-5
-26,0,13,1,12,5,0,-7
4,2,-4,12,5,3,6,2
14,0,2,10,2,-3,5,9
-18,2,-1,-2,-2,-3,-3,-9
11,-4,-8,-18,-11,-1,-7,-6
-5,7,9,19,1,2,3,7
10,-2,-11,-29,-5,-5,-1,4
-12,8,3,3,3,4,-2,-11
38,-10,-1,3,1,-1,-6,-10
-62,5,11,3,2,0,1,1
19,-16,11,8,-9,-3,7,22
-6,-15,-30,-24,-9,-9,-7,-4
-23,7,0,2,2,2,-3,-14
50,11,-6,-5,-3,3,0,1
-15,7,2,7,2,2,-2,-5
-6,-9,3,6,-3,0,-1,3
-18,3,-2,-7,-5,-7,-4,-2
8,-10,7,1,-4,-4,-5,-5
-11,7,-20,-12,0,0,-3,-9
16,-2,5,2,11,3,4,7
-26,-12,-9,5,-5,-2,-5,-7
34,-4,-5,-24,-9,-6,0,7
3,4,-9,1,3,0,-3,-13
25,11,0,-1,-1,0,4,11
21,5,-1,-2,-4,-3,5,19
-22,-11,2,-5,-3,-3,-5,-10
-17,-3,8,11,12,3,0,-14
22,12,-1,1,2,6,3,0
-32,-18,4,-2,1,-2,0,6
-13,3,-6,-1,-8,-12,-11,-10
-14,0,-10,-1,2,4,-3,-5
-4,5,26,-6,-4,-4,-1,-3
18,3,-25,-16,-11,-5,1,1
-24,-18,0,-1,3,2,-5,-12
21,10,18,22,0,0,0,8
-26,-3,-42,-18,-6,-8,-9,-5
13,-17,2,2,12,2,2,3
-7,-1,-8,-5,0,-4,-3,-2
-8,-6,0,5,-4,0,-1,-1
-6,6,17,16,8,6,-1,-6
31,13,3,-9,-12,-2,2,15
69,56,3,7,5,6,2,-8
-20,-39,8,-7,0,1,4,19
-93,-83,-19,-9,-11,-14,-4,-7
-20,13,-5,3,2,-6,-6,-12
-22,-19,-4,20,6,5,-1,-3
16,37,-3,-36,-16,-2,-7,-21
69,27,9,-4,1,7,10,28
-9,-15,-1,-8,-3,2,3,1
10,9,-15,2,-4,-4,0,-2
-42,15,13,21,8,8,-1,-23
68,-23,5,-14,0,1,9,43
-23,14,-8,-18,-5,-7,-1,-1
5,-7,12,2,6,2,0,5
-39,-11,-16,-1,-8,-4,-9,-14
-22,15,7,11,8,-1,-8,-21
65,31,7,7,1,1,-8,-11
-12,-30,-8,-12,0,16,16,31
-15,-8,-17,4,0,-4,1,4
29,29,7,8,-8,-22,-20,-7
-1,-8,6,12,5,0,1,1
-39,-12,-11,-4,4,32,23,-10
50,13,15,12,3,6,12,13
-5,17,2,-20,-5,-1,1,-3
-33,-22,-20,-13,-5,-17,-16,-9
12,-3,2,-37,-7,-17,-16,-10
15,2,-9,-13,-2,5,9,18
-16,-6,7,11,0,0,-4,-13
-37,-2,10,14,1,-3,-24,-6
24,4,-3,-1,-4,-3,22,8
14,-10,-4,4,7,-3,-17,-4
-23,0,-6,37,-1,-15,-86,-31
15,13,-9,-22,2,25,62,21
-19,-29,13,11,-5,-28,-46,-10
-8,22,-17,-6,-8,-30,-45,-21
33,-24,1,13,6,41,127,51
-7,8,4,0,1,1,-65,-19
1,23,14,-5,-4,-4,17,6
9,-2,17,33,1,-25,-94,-33
-27,-2,0,-45,-2,13,77,17
54,-26,-18,27,7,3,-39,4
-56,-11,-16,-52,-10,-12,51,-14
2,8,20,40,6,1,-25,-2
1,26,23,-50,-17,-21,-58,-18
-1,-15,-25,10,-1,1,34,5
3,-8,-24,14,4,1,-66,-8
-40,-10,-2,-13,-2,10,42,-7
39,-3,13,33,5,-3,7,3
-16,12,31,-6,-10,-26,12,1
-23,-6,-28,12,-1,-1,-15,-19
-2,-16,-9,-35,-4,-5,-28,10
-24,12,14,43,-6,19,68,48
26,-8,22,4,5,11,-7,-41
44,5,-1,-7,2,-72,-67,14
-24,-6,-41,-60,-24,-70,-68,-35
-7,11,-6,11,-1,73,42,17
-49,-8,17,80,18,8,-75,5
41,29,15,-86,-5,17,-7,10
18,-26,-12,14,3,-19,-23,12
-38,-8,-29,46,-10,-61,-101,-47
27,6,8,-99,-12,12,65,15
-16,-10,18,59,4,-3,-67,-5
8,-6,-48,30,10,19,101,23
-3,16,-8,-114,-4,0,-9,-19
7,-31,2,7,-6,5,-8,2
13,15,-4,14,-2,-10,62,10
-19,18,38,-3,3,40,12,-1
2,-22,-3,-6,8,25,41,11
-36,-4,7,8,12,-4,-9,-1
4,4,-24,-45,-19,-70,-94,-36
-4,18,19,19,-10,8,29,27
25,6,-34,-20,13,60,41,17
11,-9,-16,22,7,17,-58,5
-27,0,2,20,-8,21,42,5
21,-11,64,101,13,-6,13,6
-8,-3,-75,-35,-4,-62,-119,-40
6,8,35,-36,-28,-10,43,42
-24,-13,-21,53,2,6,-30,-25
-24,-52,-29,30,3,-6,78,-9
30,8,34,-22,-2,-14,-97,22
-11,3,-36,73,19,10,105,-37
-6,22,27,-68,-11,4,-62,-10
-75,28,24,-86,-30,-48,-68,-29
88,-37,-3,74,30,43,87,69
29,46,23,-47,3,45,56,-17
-8,-44,-43,-52,-10,0,109,25
-10,-15,-86,-85,2,26,28,-8
-30,21,74,92,2,-10,2,-18
-6,-30,-40,31,0,-42,-81,-18
36,18,57,12,4,44,21,36
-13,-10,-19,23,0,-23,-40,-39
-30,-10,49,-53,-5,-19,3,-4
17,25,-61,6,0,-15,-45,3
-25,-1,40,109,0,10,3,-21
4,-51,20,-30,-2,8,-16,62
1,15,-43,-36,-16,-25,-70,-73
-12,19,34,19,26,27,103,24
17,2,-58,-95,-13,-39,-64,-28
51,9,-51,-12,4,52,100,47
-29,-16,13,127,22,28,-27,-13
-21,2,-27,-43,-17,-10,-35,-30
18,18,41,103,33,36,7,36
101,14,12,3,-12,-12,31,10
-76,-13,-15,-13,-11,-37,-18,-9
-19,-4,54,4,-9,-60,-116,-17
12,16,47,61,9,39,24,50
-39,-24,-34,58,7,32,57,-70
-2,-23,68,-108,-20,-29,7,-4
17,13,22,-11,-12,-10,-61,10
-25,10,15,48,-7,-51,44,-20
8,20,49,61,29,57,68,35
14,3,-96,6,10,43,37,11
-52,8,-15,-47,-22,-13,-78,-28
24,5,45,49,8,-39,74,3
36,-14,-51,83,10,43,-75,7
-4,8,-22,-49,-34,-39,-12,17
30,9,75,58,0,3,-2,-6
-54,-22,-38,-44,6,46,76,23
7,7,22,3,2,-38,-66,-9
4,16,-56,-62,-39,-29,28,-7
-25,-16,25,68,2,-9,-24,18
32,-19,-50,-65,-11,1,38,-6
0,25,32,35,18,-6,-28,-4
-9,1,-99,6,7,-51,-78,-37
3,-10,15,-26,-30,-18,127,16
-38,-11,49,116,10,16,-128,-13
1,4,-49,-95,-8,50,73,28
41,2,51,14,1,5,-12,11
-5,-20,-62,6,21,-1,-43,-6
24,21,43,-95,-22,5,-57,-13
27,33,5,62,-7,-34,-11,14
-46,-15,-52,16,-16,-54,-103,-43
5,-5,28,-35,17,57,119,16
5,-18,-77,16,22,21,33,9
-57,24,76,-125,-49,-37,-93,-47
56,22,99,108,23,24,54,23
-2,1,-24,80,17,-6,-45,14
-19,-28,-73,-117,-8,11,-41,-9
4,-29,4,-34,-10,-5,75,9
-56,29,66,80,18,-32,-100,-32
36,-49,-68,-28,-14,6,119,35
16,16,15,45,12,40,96,10
12,15,-1,15,16,-17,-56,-3
-36,1,-7,51,-3,4,-11,-21
-23,-2,15,8,2,-16,-23,20
-4,-17,-37,28,1,19,41,10
11,1,68,-17,4,11,-14,25
-45,-33,-97,-44,6,25,24,-15
53,21,-1,24,-27,-43,-113,-4
-8,0,49,-5,-14,-29,11,-8
-24,-16,-19,51,8,-4,-65,-3
43,7,28,12,25,23,52,14
15,-13,14,-22,6,-1,-24,-1
-28,5,26,33,-7,-28,-83,-25
6,-11,-47,50,25,-9,-52,8
-18,12,66,-65,-5,43,97,24
-8,9,-98,10,9,21,-49,-7
3,-2,63,-24,3,-2,-2,-17
-21,-17,-35,-35,-25,-40,-20,-42
-30,7,10,17,-4,-16,-97,21
10,-31,-93,41,9,67,58,2
-17,32,87,67,-2,11,16,27
-9,-8,-59,-68,-21,-24,-28,-27
-4,-28,-59,-30,2,6,78,5
14,21,95,-27,-30,-36,-3,-19
-7,-19,-112,-3,-6,-33,-78,-23
21,31,62,4,2,26,-40,30
3,-20,48,127,32,35,103,8
-43,-24,-63,-128,0,-19,-13,-14
79,50,86,71,-6,-41,10,13
-21,-6,-31,4,-3,25,-77,-2
23,-2,-30,48,13,36,72,27
-23,-4,13,64,23,17,-41,-1
-18,-12,-45,-67,-20,-67,-49,-35
63,29,73,46,4,38,126,70
-17,-29,-1,-54,7,31,-72,-20
-59,-7,85,-33,4,32,33,-69
57,24,11,78,21,0,-22,10
-32,9,-61,-128,-35,-43,-35,-26
56,-40,-2,-8,-22,-36,-33,6
14,3,1,31,9,-11,47,27
-48,-23,-54,-69,10,25,-8,-11
-20,7,108,127,25,-5,14,-24
32,14,-36,-107,-31,-27,45,32
-3,28,4,64,2,3,-113,-46
7,-47,-62,-71,30,111,127,97
34,23,35,0,-9,-4,-53,3
-58,-1,-67,0,-13,-44,-123,0
6,7,7,-14,-5,-45,-58,-18
11,3,-77,-60,-14,18,19,-15
-24,-24,-33,-59,-4,6,51,-4
-3,-9,58,68,10,9,-9,-5
28,62,14,18,-27,-51,-37,17
-34,-10,57,63,12,-21,-120,-24
13,-33,-124,-28,-1,26,62,-3
-61,-23,50,-10,-6,-10,-39,-48
61,38,67,-75,-20,31,89,15
-8,-33,28,30,2,-36,-27,2
34,34,43,73,19,11,-23,-37
-41,-14,-95,-80,0,6,61,-26
-26,-24,61,3,-6,0,-50,11
15,2,-108,-31,-15,-8,46,2
-24,-39,-21,-22,-16,-36,-22,-18
29,33,47,58,17,1,-27,14
-7,-37,-28,-11,-7,1,16,4
-13,19,-71,-112,-24,-17,-21,-16
-26,-34,68,127,42,9,13,0
17,9,29,-72,-11,4,-44,-6
12,4,-25,21,4,0,55,30
-26,1,17,28,4,2,-72,-47
10,10,-2,-12,1,1,87,35
4,-2,28,23,1,-1,-29,1
-23,-21,-63,-54,-9,-43,-68,-22
6,7,51,76,-14,38,74,25
-37,12,25,-76,-15,-13,6,24
44,13,-15,11,-7,-12,-1,-18
-8,-3,-26,33,13,22,36,19
10,2,-8,9,-4,-12,-16,-11
-15,-1,-30,-26,-20,-26,-39,-5
17,2,32,21,14,2,31,5
-6,-6,-25,20,-11,-2,-10,1
-1,5,12,76,53,14,-7,3
5,8,22,-37,-17,3,-6,-10
8,12,7,27,-7,-5,-14,4
-6,-14,-18,-11,-10,8,28,-5
-8,-12,16,0,-8,-11,-69,-13
10,2,-37,13,4,8,44,7
0,3,-3,-20,-37,-3,20,-3
-10,-1,12,48,37,9,-3,5
-6,3,19,11,9,0,16,-3
21,9,20,-3,12,1,-36,4
10,2,-4,-13,-8,-5,30,4
0,9,30,5,-4,7,14,1
-27,7,-28,-57,-14,-5,-2,-9
11,-17,-6,6,-7,-8,-17,-8
7,5,23,29,9,-2,-2,5
2,1,-10,3,1,2,0,1
-1,-6,14,8,-9,1,15,-4
-14,-8,-29,2,-7,-5,-15,-7
6,3,-31,-23,-4,3,-2,1
-6,-3,18,-16,5,-2,3,-5
5,0,-51,-55,-11,-3,-3,2
-2,-1,15,5,6,4,-40,-5
0,2,41,43,14,1,25,-1
-5,-4,-64,-31,-10,-3,7,-1
9,2,75,10,-11,-6,10,4
-9,-11,-61,0,4,0,-6,-4
-1,12,87,47,16,9,-8,-3
3,3,-53,-11,-9,-1,1,6
1,-15,25,21,-2,-1,0,-2
-9,4,51,16,3,-5,4,-8
-3,-11,-23,-25,-10,0,-14,0
0,1,-10,-12,-3,-2,4,0
2,-8,-57,-43,0,-3,-5,-1
-5,7,69,36,-1,5,7,-5
3,-4,-98,-29,-1,0,1,2
7,9,58,56,2,2,-1,3
-9,-16,-72,-77,-15,-15,-8,-8
-2,4,11,21,8,13,16,2
7,10,-24,-5,7,3,-4,1
-11,-28,-56,-25,-8,-5,0,-7
3,6,25,27,-1,-1,-2,2
-3,-6,-38,-31,-9,-7,-1,-3
0,10,82,12,-1,0,-10,-3
-5,-20,-21,-34,-3,-1,-1,-3
6,17,93,82,11,1,5,2
-3,-4,-30,-15,0,-2,0,-2
-11,-13,-13,-33,-14,-6,-8,-6
3,6,8,-31,4,1,0,2
-1,-2,12,14,1,3,4,0
8,23,21,-20,3,1,-1,0
-20,-49,-88,-46,-16,-12,-10,-6
-7,-8,105,16,-7,-27,-7,-5
-3,-13,-35,-32,-4,8,-16,-4
9,14,30,49,8,24,38,8
4,12,-12,-56,-1,1,0,-1
0,-2,18,-7,0,5,0,0
2,6,63,28,-1,-11,-3,-3
-11,-20,-3,-27,-7,-14,-14,-7
3,1,-75,4,4,6,2,0
0,13,30,-9,-2,3,2,0
4,7,4,36,10,4,3,1
-3,-3,21,8,1,-1,-5,0
5,6,19,14,0,0,3,2
1,6,2,-8,-5,-4,-5,-2
2,1,6,8,2,0,4,2
0,3,-22,-34,0,-3,-2,1
-10,-18,0,4,-10,-7,-8,-8
5,3,-16,29,7,6,1,4
3,4,-10,-13,-2,0,3,1
-2,0,4,-4,-1,-4,-4,-1
3,8,17,25,5,4,2,2
-2,-11,-51,-4,-4,3,1,-1
-3,-7,-53,-42,-4,-2,-1,-1
-4,-10,1,4,-5,-7,-10,-5
5,24,94,54,7,1,1,0
-1,2,29,-4,1,2,0,0
-3,-12,-44,-14,-4,-2,-2,1
2,1,-19,1,-1,0,-2,1
3,13,39,-9,3,5,-1,0
-8,-27,-75,-26,-7,-2,-4,-6
-1,2,64,18,-7,-4,-1,-2
0,-1,-21,2,-1,-2,-1,-1
-1,-4,12,7,8,0,-1,0
4,12,36,13,1,4,3,0
0,-5,-97,-46,-7,-2,3,-1
