-3,-11,-90,-14,-4,-4,-5,-6
2,3,28,2,-4,0,1,0
-25,-14,-16,-12,-9,-2,0,0
11,-6,6,-6,-8,-6,-1,7
0,13,-11,10,18,4,-1,-2
-7,4,8,-3,-8,-3,-2,-3
11,-1,3,17,7,-2,0,1
0,1,-12,17,20,8,2,-2
15,-7,-28,-7,-4,-3,-2,2
-22,0,35,-5,-10,-4,-3,-6
-16,-11,14,-9,-4,2,0,-6
12,15,10,2,-2,2,-1,-2
11,-1,20,-1,-6,-3,-2,1
-7,-15,-18,1,5,1,0,3
-2,0,-20,-13,-8,-4,-1,-3
-14,-3,0,2,0,-3,-3,-4
6,8,7,-2,-7,-1,-2,-2
20,7,-1,-1,3,0,0,2
-25,-16,-31,-8,-2,-4,-3,-1
14,5,-4,0,1,-2,0,-1
-13,-7,14,-3,-3,0,1,0
6,-1,-1,7,3,1,-1,-3
6,10,3,-5,-3,0,-1,-1
-16,4,18,8,8,0,-5,-3
6,-17,8,3,-1,-1,1,6
-1,2,5,8,0,-3,-1,-4
4,-1,-8,-9,-5,-2,1,-1
-11,-5,-9,-27,-7,0,0,-4
-1,11,31,21,-2,-3,-2,-2
9,-4,-21,1,-10,-3,-1,3
7,-9,-9,-10,-3,-3,-5,-3
-15,-7,0,-1,1,-2,-1,-2
-6,-14,-6,-1,4,3,0,-2
28,8,-7,-11,-9,-2,-1,-3
-52,5,17,-2,-2,0,0,-1
16,3,-6,-12,-3,1,2,2
-5,-2,2,13,-1,-4,0,-2
-22,-4,-9,-6,-1,-5,-2,-8
17,3,-15,-36,-25,-2,1,-3
24,-9,15,43,41,9,6,14
-3,10,36,16,1,-4,-2,4
4,-8,-22,-5,5,0,-4,-2
14,15,36,15,17,4,-1,-7
-44,-15,-49,-25,-27,-3,-2,-10
5,-5,3,-19,-11,-4,-2,-4
-1,-12,-6,-1,-1,-3,1,3
-26,-2,30,19,17,2,-4,-14
-36,-14,-69,-30,-15,-3,0,-7
90,14,1,0,-10,-5,5,34
-41,2,-9,-14,1,3,-1,-6
-27,7,8,3,3,0,-6,-13
61,-8,22,18,-1,1,4,22
-64,-9,-48,-18,3,3,-5,-19
7,1,16,15,-1,1,1,-10
9,5,0,-29,-28,-8,1,-5
-14,-13,13,45,7,-8,-4,21
3,18,7,1,20,4,0,1
71,20,-23,-8,-15,-3,4,11
-69,-36,-28,-7,29,10,0,-14
53,0,40,-30,-23,-8,3,4
-11,8,7,36,-1,4,-8,-5
-103,-13,34,49,34,-2,2,-4
80,15,8,17,6,3,-12,-2
3,10,-13,-25,-1,-8,-7,-19
37,-17,-33,-4,-10,-9,-3,-7
-103,-12,-11,-40,-24,-4,-5,-32
73,-7,-10,11,19,6,15,59
12,41,-11,-12,-12,-12,-9,4
-104,-22,17,12,4,4,4,-24
-26,51,77,-16,-46,-10,-21,-36
82,-19,-91,3,27,17,17,69
-111,-30,-60,-4,31,-3,-1,-30
31,10,25,-15,-42,-11,-6,5
102,-13,-22,26,60,9,5,48
-113,28,45,-33,-47,-14,-9,-52
59,21,16,-69,-44,3,-11,-4
45,6,22,63,88,18,41,59
-27,-40,-23,-65,-76,-7,11,12
119,73,29,51,81,15,-14,-45
-57,-112,-2,-60,-78,-28,23,72
-44,62,23,60,28,6,-40,-61
58,-4,-49,29,63,8,-12,26
-71,-19,32,2,8,-5,-19,-11
80,40,-47,10,-12,5,-12,-64
-52,-51,-1,-107,-68,-21,-8,13
10,-6,-19,-13,19,3,29,49
-70,-17,-5,33,35,-2,-21,-42
-55,-33,5,45,35,17,16,-16
58,20,-60,-7,-13,-10,-17,-15
-62,28,79,-12,-7,16,-16,-83
127,-27,-97,24,-70,-26,43,116
-128,37,59,12,33,0,-27,-50
-43,-60,-28,-33,17,-4,1,-7
-104,-2,9,-35,-15,-11,-25,-77
80,-68,58,79,-61,4,15,20
-73,22,-33,30,-25,-10,-24,-9
108,66,-23,-12,71,36,55,71
-30,12,-55,74,11,-21,-32,23
-128,-94,8,-83,-11,12,-4,-28
-18,127,3,9,-77,-31,-14,-14
-42,11,18,-20,54,28,2,-75
127,104,-42,-55,-60,-7,20,43
-59,-30,14,-40,63,-2,-49,-13
101,-16,30,93,38,10,30,55
-128,-24,-55,-90,-103,-31,-5,21
-30,22,71,28,52,13,25,-10
11,8,-82,-51,-28,-7,-16,-65
-27,-63,28,4,31,19,33,58
-1,1,55,15,-68,-24,-35,-47
109,56,59,-34,-21,-1,25,15
-47,31,64,16,-4,-12,-31,-53
83,40,29,7,21,11,0,9
-19,-88,38,72,64,29,55,104
-9,27,-101,-23,-3,-8,-53,-48
67,64,-80,-97,-34,-2,39,17
-70,48,16,85,56,-4,-19,-27
89,21,127,-2,-70,-25,-23,-13
-2,-99,14,127,11,4,3,2
-122,-30,-45,-13,4,4,19,-38
95,49,2,-52,67,25,-11,10
-79,37,21,7,-67,-24,-42,-104
-74,-11,77,47,52,26,64,97
3,2,-46,41,-90,-43,-10,34
-5,20,32,-9,-20,5,-12,-57
80,-35,-128,-86,-33,-35,-15,-7
24,51,42,8,35,7,-29,-55
-8,-34,26,-11,-18,-2,-1,45
-80,-94,-21,35,38,-2,8,-4
6,47,-71,-30,31,28,9,-8
-128,-33,12,16,-53,-21,-38,-74
102,120,83,-3,-56,-11,-6,35
24,-71,-97,-83,-18,-17,-39,7
-128,3,-5,-56,-68,-5,23,-40
127,39,23,23,23,13,58,91
-65,24,24,23,91,20,0,-27
15,37,-33,41,-7,-1,-2,-47
-10,-23,6,-35,-76,-40,-63,-94
35,-89,-62,-104,-8,10,48,103
-74,49,52,87,53,-4,-20,-15
-30,-70,-14,-37,-13,-3,1,-1
-46,1,-51,83,33,7,13,-6
72,-96,88,-62,-53,23,-14,-83
91,72,-58,-54,46,2,72,127
-54,-58,-46,-104,-38,-19,-45,-97
76,35,127,113,67,40,54,67
-111,4,-78,-109,-113,-40,-59,-65
9,22,90,123,69,33,2,26
7,19,18,-43,7,16,50,28
127,-36,-46,-91,-30,-28,-43,33
-107,92,77,69,-5,-7,-39,-104
5,-125,-49,-109,-104,-33,44,39
3,96,127,49,27,8,-3,8
-119,-13,-27,-13,2,-4,28,15
119,12,-84,-46,-8,-30,-74,-14
-128,-11,2,22,-11,-4,-34,-90
19,48,26,6,-19,12,48,41
-61,-88,-55,-81,-15,17,-19,-8
-74,42,-22,87,34,-12,70,36
98,51,4,-116,-38,4,10,48
-61,-1,-53,76,54,-10,-18,-11
-52,57,127,61,77,40,-12,-21
-43,-7,-67,13,79,15,-24,-81
-2,-77,117,74,-64,-15,66,72
69,-45,-50,-100,-53,-8,11,1
-87,49,-16,1,-51,-8,-31,-86
117,-20,117,-2,14,11,45,119
27,-23,-2,7,-14,-36,-41,-45
-115,-73,-24,3,60,25,-2,-32
127,-110,72,49,16,-10,18,84
23,-14,33,-111,-101,-25,-31,-89
-101,27,22,34,103,55,-22,-69
86,11,102,63,-23,-5,27,127
-51,25,-9,-56,-24,-33,-36,-47
54,-5,98,18,26,38,20,46
-66,-98,-16,-87,-52,1,2,-51
55,55,49,118,45,-2,-17,-27
2,42,-56,63,110,11,16,58
-128,-57,2,-10,-19,-11,2,10
91,-2,113,51,9,7,-37,-37
12,52,-91,-106,-77,-1,29,-31
-25,-47,-28,-25,20,-5,14,46
-39,17,25,62,2,-2,-4,7
-57,-22,-53,92,84,37,0,-31
36,-56,69,-67,-91,-16,-17,13
119,3,-41,-38,-25,-8,-2,7
29,32,-62,-63,-12,0,28,10
-13,55,39,30,1,-3,-17,14
-66,-19,12,14,-12,-21,-27,-52
-95,12,35,33,18,29,29,9
72,-22,-74,41,25,-21,-24,21
37,-10,-91,-29,-109,-12,13,-16
-7,-31,53,26,66,29,20,7
42,25,-10,-3,-31,-7,-11,-50
-82,-94,-80,-3,-82,10,13,-7
18,62,-34,83,51,13,5,-14
38,47,33,44,-42,-10,1,36
-69,107,86,85,17,5,8,-19
33,-24,24,-40,-35,-20,-6,7
1,-55,-43,-55,29,7,1,37
-19,27,21,-110,-29,-38,-61,-57
-25,-40,109,66,13,26,67,26
-76,61,-48,28,88,-18,-46,9
73,119,56,-49,-19,-14,21,5
-15,-97,-72,-35,3,27,35,24
73,-9,-28,-92,-25,-6,-35,-10
-52,-18,7,-53,17,-8,-25,-56
-16,-32,20,42,31,10,40,37
-6,59,-56,-69,-65,-31,-26,-43
35,-84,31,81,86,40,31,81
-28,-17,11,-71,15,7,4,-15
23,98,24,-5,-6,-15,-43,-55
-55,-78,-71,-23,3,19,14,-17
-3,3,-101,38,-49,-37,-33,-15
1,33,26,120,-14,14,12,-4
-85,-56,4,-68,-16,-5,1,-30
-30,47,93,74,1,3,14,44
-23,-78,-42,-75,-23,-2,-36,-22
-5,113,-62,-65,-41,3,44,74
19,75,25,28,11,-2,-19,-13
-35,-82,-4,-34,-42,-24,-28,-24
-83,26,111,-80,3,19,19,-24
15,18,-52,99,38,-9,-2,5
85,-5,0,8,-23,-13,0,24
5,21,25,-66,24,20,14,-8
-96,-47,4,68,59,26,13,17
62,8,7,-45,11,-2,-35,-43
-9,-69,-97,-96,-40,0,20,6
100,-8,59,8,-25,-3,5,26
49,54,53,-67,-58,-33,-28,-38
30,-14,127,127,57,26,63,56
-82,-11,-70,-61,-32,-4,-30,-2
41,50,82,97,15,9,5,15
50,61,1,-11,6,-1,-5,-36
-18,-20,-7,-45,-34,-17,41,26
51,53,11,-77,-41,-32,-53,-19
-74,-53,-6,81,23,7,24,50
66,24,-67,-88,-103,-30,-29,-5
9,69,105,63,103,36,11,-18
40,-54,-52,-31,-6,3,8,0
-93,-32,-66,47,12,-1,-22,-48
24,-15,-15,23,2,-4,25,24
-1,2,-64,-106,-102,-20,-36,-20
-2,-26,73,55,25,1,1,8
-59,18,15,-7,20,1,-5,-10
8,75,-10,12,-2,-11,-4,4
4,-80,-55,-96,-111,-33,-27,-8
43,23,20,127,107,42,31,17
11,93,-51,-73,-28,-19,-10,-37
-4,43,74,35,3,-4,17,24
-36,-53,-65,-65,-34,-17,-41,-16
-83,7,49,-9,-25,10,9,-32
56,-21,-22,12,19,38,32,8
36,-8,25,-16,16,-8,15,39
-2,17,-10,11,17,-23,-18,-6
-40,-31,-48,-5,-17,2,-7,-15
-21,-4,-31,-12,2,-7,-9,-11
32,-9,-37,-12,-19,-19,-14,-2
2,-9,-5,24,19,15,5,6
-7,-8,11,-33,-24,-9,-3,-3
16,35,27,-5,-3,-12,-15,12
-15,19,-29,3,9,22,17,-9
-10,-17,45,25,26,23,-2,-10
-4,8,2,-3,-7,-11,-2,9
39,18,1,-29,-15,-46,-26,2
-24,-8,-16,14,7,23,10,15
-2,-20,3,3,15,47,34,-34
-7,22,-23,-4,-11,10,-1,-12
17,4,19,-10,-7,11,3,8
-10,-14,3,9,21,-4,-10,-8
3,5,5,25,23,3,9,17
6,12,77,0,-6,-19,-11,4
4,-17,-60,12,0,-9,-11,-5
-15,-2,-54,-31,-10,-3,-3,-10
1,28,28,-5,-2,-9,-8,7
8,20,3,-27,-20,-18,-9,-4
-1,-8,-10,39,34,11,4,6
-22,-11,12,21,-4,-3,-4,-15
20,-9,-5,3,0,-10,-3,10
2,-5,-15,-4,-5,-8,-5,-2
8,35,54,6,-6,15,0,0
-7,-25,-9,-10,-4,13,12,-1
-6,-2,5,3,3,-2,6,-2
-26,-4,-8,4,-36,8,8,-9
34,9,-1,-25,34,3,3,19
-6,-4,-17,10,5,-19,-18,-9
-6,-10,37,0,-8,-15,-12,2
-6,-47,-24,-8,-6,-4,2,-6
-3,7,50,8,-6,10,5,-2
2,3,-7,21,0,-9,-7,-5
-3,-6,-25,-30,-5,-2,5,3
7,16,26,34,18,-13,-11,2
-9,-27,-41,-13,-11,-8,-2,-4
0,0,1,-42,-7,-2,-3,-2
-1,10,16,21,0,5,0,-1
2,-6,-35,-14,16,2,3,0
2,4,-12,-8,-3,-4,1,2
-5,-7,-25,-20,-32,-4,-2,-6
-4,-11,18,35,41,6,1,3
4,6,15,10,4,1,-2,5
-3,5,13,-18,-9,-3,5,-2
-3,-13,19,-1,-8,-14,-7,-3
-3,-14,-63,-17,-15,-27,-15,-3
1,10,22,8,9,24,9,0
-5,-6,-4,-43,-19,-6,2,-5
3,19,47,31,8,4,-1,1
0,-14,-38,-21,-1,-6,0,0
2,18,-13,-16,-2,-15,-11,-1
-7,-18,-10,24,-7,0,5,-2
-1,-2,-7,-29,6,-2,2,0
3,12,6,-2,3,2,2,0
2,-2,-2,-9,-10,-10,-4,-2
1,9,31,21,-2,9,0,0
1,2,6,50,15,9,1,1
-1,-1,6,-12,-20,-4,0,1
-2,-8,-43,-32,-1,-5,-1,-1
1,-4,-31,12,-9,-3,-2,-3
1,16,54,30,20,4,-1,-1
-4,-7,-68,-14,-5,6,2,-1
1,-1,44,2,10,4,2,2
-11,-16,58,-59,-13,-19,-9,-8
-4,-16,4,5,-2,-4,-3,-3
3,11,51,-13,-8,11,8,1
1,-2,3,39,2,-4,-2,-1
2,5,-10,41,5,-7,-6,-2
5,9,-8,-68,0,1,-12,1
-11,-1,48,8,1,0,9,-2
-2,-13,-80,-10,3,9,7,3
-1,7,25,-2,0,2,0,-2
0,-1,-14,13,-1,-4,-3,-2
1,2,42,40,9,-2,-7,-2
-3,-8,-30,-50,-12,-3,-1,-2
-5,-13,-52,21,3,8,2,-2
0,39,28,-26,-1,2,3,0
-3,-14,7,30,8,5,-2,0
-1,7,0,-53,-5,-1,3,1
1,-11,-59,-5,-6,2,-4,-1
-4,-18,3,14,-4,-1,-1,-4
-2,-8,-58,-14,-12,-3,1,0
-1,13,34,27,7,-1,-1,-1
2,13,39,17,17,9,3,3
-4,-20,-49,2,-7,-4,2,-2
5,11,31,-18,8,6,-6,-2
-13,-50,-86,19,-11,-9,-4,-2
0,18,32,-45,-10,-2,-1,0
-5,-23,1,21,2,-2,0,-3
-1,3,28,-3,0,0,-2,-2
10,27,91,37,7,4,1,0
-8,-7,110,13,-7,-9,-4,-5
-1,-15,-7,3,-1,2,-2,-1
4,7,-21,-3,-8,-6,-2,0
-1,12,82,14,7,2,-2,-3
4,4,-52,19,10,0,3,1
2,8,-24,-21,-5,-3,0,2
-4,1,-10,-8,-2,0,0,-1
-6,-12,-11,-6,-6,-6,-6,-3
1,8,17,13,-14,0,1,-1
-1,6,-25,-12,22,2,-3,-1
3,5,57,21,3,3,-1,1
-3,-10,-51,-11,-4,-7,-9,-2
3,3,-33,12,5,6,6,2
-3,-5,-8,19,-10,-1,-2,-1
-6,-5,13,-19,-5,-3,-3,-3
2,-9,-13,3,8,2,2,-2
7,15,101,21,2,2,0,3
-5,18,67,0,-13,-7,-5,-3
-6,-16,-60,-16,-3,-4,-5,-5
-2,-2,33,8,-5,-4,-1,-1
2,3,15,4,0,2,2,0
3,-5,-23,-16,0,2,2,0
3,8,21,4,2,2,-2,1
0,4,60,-10,-4,-7,3,-1
-8,-25,-68,5,-2,0,-3,-2
-5,0,3,-16,-2,9,5,-1
-4,-9,-18,4,-2,-1,-3,-2
4,1,-16,-11,7,4,0,3
-2,-1,-7,-16,-8,-9,-7,-3
1,-6,-31,-5,13,1,2,-1
1,14,80,19,-5,-1,0,-1
-11,-30,-22,26,-9,-8,-6,-6
-2,-4,-17,-27,-3,-5,-4,1
-3,1,-2,-21,-13,-3,-1,-2
6,15,-4,15,5,-2,-3,0
4,14,49,59,14,0,-4,0
-7,-13,-69,-56,-7,4,8,-2
2,-14,24,27,0,-2,-1,2
-2,3,1,-4,4,1,-1,0
8,33,46,3,9,6,3,2
-6,-22,-66,-14,-3,-6,-8,-2
1,8,17,8,1,1,1,0
-3,-22,-19,2,-9,-6,-2,-2
1,5,-5,-68,-24,-2,-1,0
3,13,48,43,6,4,1,-1
1,-1,-44,15,4,-2,0,2
2,7,24,5,1,-2,-1,-1
-9,-23,-43,-3,5,3,1,0
0,10,55,8,-12,-8,-4,-2
-4,-4,-42,-31,-11,-4,0,-3
-1,-22,-28,2,5,12,5,0
5,37,72,10,-10,-25,-14,-1
3,13,-50,-25,9,-5,-15,-3
7,5,-19,5,13,41,33,11
-3,-12,2,-18,0,6,14,0
