-2,-8,-17,-8,-6,-4,-2,-1
0,8,-1,-9,-7,-2,0,0
2,6,23,-11,-6,-3,-2,0
-3,-5,-22,1,0,-3,-2,-1
0,1,-3,-1,-1,-1,0,-2
-4,-8,3,0,8,5,2,-3
-1,0,-5,-2,-4,2,-3,-2
0,5,18,8,-4,-1,-3,-2
-1,1,14,-5,4,-1,-1,-1
-1,-10,-19,4,0,-4,0,-1
0,2,25,11,-3,-1,1,1
0,-1,-12,1,-2,1,2,0
-4,-6,5,10,8,1,0,0
-2,-6,-13,-4,2,-2,-1,-2
0,-4,-17,-1,-2,-1,1,1
3,12,17,-3,-5,-3,-4,0
-3,-1,14,1,1,2,0,-2
0,3,14,-12,5,2,-3,0
-3,-10,-11,-3,-5,-8,-3,-2
-1,-1,7,4,5,1,3,-1
0,0,-22,-3,-9,-5,0,0
-1,1,21,1,-8,0,0,-2
-3,3,5,-1,-3,-3,-4,-3
-1,-4,-19,-10,-5,0,-1,-1
-1,-6,-21,-9,-5,-5,-5,-1
2,9,7,-2,0,-3,0,-1
-4,-19,-19,-14,-13,-3,1,-3
1,12,12,39,19,2,0,2
-3,-9,1,-14,-8,-1,0,-2
1,1,0,3,-2,0,-1,0
1,7,6,-6,-4,0,-1,-2
1,-1,-9,-12,-5,0,-2,0
-2,-9,-32,-2,0,1,-1,-2
-3,-5,-6,0,-3,2,-1,0
-3,-4,0,-19,-7,-2,-3,0
-1,-2,7,14,6,0,-3,-2
0,7,-2,-2,2,-2,-2,-1
0,-1,8,-1,-8,-2,-4,-2
-2,-1,-21,6,22,5,0,-1
-1,-9,1,-4,-8,-3,3,-2
0,7,6,-16,-5,0,2,-1
0,6,6,17,9,0,0,-2
-1,-6,6,-2,-5,-2,-2,1
1,10,39,-6,-4,3,0,0
-8,-19,-15,2,-6,-5,-6,-3
0,-1,-18,-16,-3,-3,0,0
-2,5,9,22,13,-1,1,-1
-2,-4,1,-21,-7,-2,1,-1
4,11,17,30,14,6,2,0
-4,-13,6,-19,2,1,-2,-2
-4,-9,-17,18,1,-4,-2,0
-3,2,-6,-4,8,0,-3,-1
-1,-16,-41,-11,-7,-3,-3,-3
-2,-6,-12,3,3,0,0,-2
-3,1,2,-12,-6,-2,-1,-1
-2,-3,0,-14,-11,-3,-4,-2
0,8,9,6,-6,-4,-3,-1
1,3,6,4,17,5,2,0
14,3,-20,-3,-9,-2,0,0
-6,2,-2,-4,-14,-4,-1,-1
-12,-22,4,13,21,0,-1,1
-2,14,13,6,2,-1,0,-2
-3,-3,-5,-16,-6,-1,-1,-3
7,-1,-25,-1,-5,2,-1,-3
8,18,22,-7,-15,-1,1,2
-4,-14,-5,0,-7,-2,0,-2
4,13,6,-1,3,3,0,0
2,1,0,2,1,-2,-1,1
-5,-5,0,-6,1,3,-2,0
-2,-4,5,5,8,3,-1,-2
-5,-5,-19,-1,-1,-5,-3,-4
-2,-26,-26,-11,-11,-6,-1,-3
-1,28,26,22,-2,-1,-1,0
5,3,-29,-11,-10,-4,-2,0
-3,-5,12,-7,-8,-1,-1,0
1,7,25,14,29,7,1,1
-2,-2,-15,-17,-8,-3,-3,-6
3,-8,-9,4,-8,-5,-2,2
-7,-5,4,12,5,-2,3,8
4,-5,-10,1,0,-5,-2,-1
2,5,-4,-51,-6,5,0,-3
1,13,26,46,-4,0,0,-5
-2,-12,-2,-9,7,0,-1,-1
-5,-6,-21,-3,-2,-7,-6,-1
14,10,20,7,13,-1,-1,-1
-23,-9,-12,-15,-21,-2,-2,-3
1,2,17,-5,0,3,3,-1
-14,-4,-23,11,0,4,2,-2
0,-19,-8,-1,0,-2,-1,-4
3,15,17,3,3,0,-2,1
0,-6,-11,2,-6,3,0,7
-7,-13,-6,-10,-2,-2,-4,-5
12,-5,3,15,5,1,1,6
5,6,-8,-9,0,-3,-3,2
-3,-11,4,0,3,-1,-4,-5
-10,24,7,-19,-13,-1,-1,-4
10,-2,3,20,-3,-2,2,3
13,-8,-10,-1,10,1,-2,-5
-27,-3,-10,-23,-2,0,0,-8
-2,-10,23,36,-1,-3,-3,4
-41,8,2,9,1,-3,-3,-4
29,0,-3,-3,8,5,3,11
20,6,-3,-5,-18,-3,-2,-3
0,14,14,-11,32,4,-1,-9
1,-10,-33,-1,4,1,0,-2
3,-7,17,17,-10,-7,-3,-2
-47,6,45,-7,-12,-5,-2,-5
19,-12,-36,1,-13,-3,-3,1
22,2,6,-18,-3,2,3,9
-18,-1,-18,-13,-5,-5,-2,2
23,18,4,2,4,0,-5,-5
-31,3,21,-3,-2,0,-3,-3
-11,-8,9,1,0,1,-6,-11
11,9,5,-13,-4,0,-1,-10
17,-8,-6,31,4,-1,6,16
24,-19,2,-38,-7,-5,5,14
-18,34,-6,-30,-14,-6,-5,-21
-9,-39,5,22,-1,-4,-2,2
-64,-19,-23,5,13,-2,-8,-12
36,19,5,6,-4,2,13,29
18,8,8,30,6,3,2,1
17,13,-3,-18,-9,-6,-4,-10
49,84,0,2,5,9,-2,-17
-1,-89,-16,23,5,7,9,23
-27,-29,-5,-48,-2,-12,-8,10
-17,18,-17,26,0,-4,-3,-9
-15,-21,-7,-35,-11,-3,-5,-8
46,62,41,16,-17,-1,-11,-29
-12,55,39,38,18,12,14,10
-3,-100,-35,-14,3,2,6,37
87,54,23,13,17,-7,3,21
-59,-72,-48,-38,-22,-4,-6,-19
49,27,-5,-10,-50,-14,-17,-35
-66,29,37,23,24,10,2,-3
-12,21,-70,-3,-7,1,6,14
59,34,54,20,20,4,8,5
-45,-73,-4,-26,-14,-6,8,21
-10,12,-5,-15,-44,-13,-25,-27
-50,-39,6,43,41,2,-2,-7
-1,48,-18,-56,3,-5,-10,-11
45,14,21,-6,4,4,14,-2
-1,35,-2,-2,-37,-15,-9,-15
-75,-80,8,15,16,15,13,28
68,17,-14,18,-6,-5,-4,-5
-65,-13,-7,-57,-23,-10,-8,-2
24,9,6,86,101,25,23,24
-62,-3,-39,-13,-63,-14,-14,-29
-66,16,-4,20,-3,2,-12,-4
84,29,12,49,46,13,14,17
58,-39,-26,-74,-67,-18,-9,-19
-21,12,-18,-27,-23,-8,21,44
-32,-62,12,-76,6,9,0,-32
-14,34,-24,53,26,-3,-16,5
-98,-7,-12,41,10,0,9,-7
57,12,43,-21,2,-8,-17,-29
85,-15,-4,-42,-30,-8,11,39
-76,-76,-31,28,9,9,6,-3
-14,106,22,-97,-25,-7,0,-25
16,-28,-13,23,3,-5,-10,-7
-57,25,51,42,0,-5,2,23
-42,-6,8,-29,-26,-15,3,-8
-4,-95,-7,8,5,5,-26,-8
74,110,-29,-43,-18,-8,-11,-37
-69,-68,-6,-36,-4,2,-11,-50
-24,-26,-23,56,-7,0,35,82
35,1,51,-30,40,8,-10,-17
-38,-35,-31,-59,-33,-30,-33,-14
111,102,-21,21,-5,2,-15,-22
-117,-90,0,72,6,4,-10,-28
63,23,-55,-9,-17,-7,3,26
-26,12,52,-38,-15,-6,10,-6
-95,42,39,36,54,21,-24,-57
127,-3,21,-16,-21,6,34,57
75,52,-14,3,18,-1,-6,5
-12,-52,-15,-11,-40,3,9,-9
-23,4,96,25,-16,14,58,47
-71,10,-70,-91,-25,-30,-68,-60
29,-81,-17,23,67,20,14,60
-69,-17,1,8,25,2,-7,-18
-106,3,-14,81,-8,-14,-69,-109
104,-18,35,-73,-43,9,39,78
41,65,16,40,-17,-1,16,26
2,3,0,-54,4,6,0,-14
-1,-81,-17,21,31,7,15,39
-13,37,-35,-78,-57,-24,-36,-98
-39,-62,24,50,-63,11,-1,24
127,85,43,91,117,37,22,57
-74,16,-16,-79,-47,-36,-4,8
37,18,-86,8,30,3,-8,12
-15,-8,65,-28,-37,-20,-50,-128
-128,-85,62,66,-40,21,84,84
70,-88,-94,-97,-29,-14,17,6
114,96,98,113,-3,11,-38,-102
-45,57,-26,-46,92,22,86,107
2,10,10,55,-6,-7,-49,-68
54,63,35,33,2,-3,2,19
-120,-24,-49,-59,-19,-2,10,-57
83,-52,-86,-10,-33,-15,-9,-50
65,-128,-4,32,28,1,-15,58
-24,53,-34,-3,23,-6,7,6
-24,96,122,26,9,4,-26,-89
-6,-112,-82,5,-18,-1,27,103
-17,119,75,-58,6,-2,-28,-53
49,-50,25,73,-8,14,9,14
-76,87,-35,-26,83,-6,-29,2
-82,-33,64,30,-31,-9,10,19
-37,-7,-50,-55,-69,-23,4,-14
51,69,-42,22,47,12,12,27
-44,0,21,69,-14,1,-1,4
-34,79,-3,-63,18,10,-2,12
14,-60,42,32,51,-6,-12,-11
5,19,-8,1,1,11,-11,-20
109,-37,-46,-64,-32,-26,7,55
-128,99,5,31,-19,-15,-52,-125
71,-1,-83,115,67,48,51,28
-94,73,23,-32,-11,-25,-7,31
111,-128,75,36,21,2,-3,53
-4,19,-22,-38,-59,-9,-5,-55
-72,58,-34,-61,-23,-27,-24,-2
16,-8,17,-9,26,15,-14,-23
-38,-11,24,73,47,22,38,28
-58,60,17,-12,29,2,-7,-22
121,-81,-55,-65,-74,-19,25,52
33,51,17,-13,-23,5,-4,2
-91,-30,-54,-85,-56,-11,-17,-66
86,-65,-70,34,52,19,34,59
-50,115,87,28,41,-3,-23,-27
-17,-74,-6,7,-24,-35,-32,-9
63,2,-10,5,1,8,-7,-74
-51,22,76,-23,-10,26,82,83
-61,14,-52,-35,-59,-5,-56,-50
27,-118,48,111,91,26,59,52
-72,45,-102,-73,-46,-44,-43,31
-16,-43,15,3,-17,-26,-24,-51
19,29,77,53,26,8,0,-21
-109,88,-55,-109,-83,-35,-25,-32
63,-52,-2,74,84,50,41,24
-43,-52,-46,-63,-46,-37,-22,0
1,72,59,-55,-26,5,-14,-22
-80,-96,-22,72,68,-27,-42,-61
66,75,-3,-45,-26,-7,0,22
-75,-53,-13,-73,-64,7,-33,-71
123,-18,41,47,91,61,55,80
-70,30,-85,-118,-50,-24,17,25
-49,30,107,37,-2,-13,-22,11
-64,11,-38,-69,-71,-32,-28,-75
-63,-44,71,109,64,19,-18,-7
57,6,-48,-51,-45,14,22,36
49,15,16,-20,5,6,62,66
127,94,37,-9,1,1,-56,-30
-128,-22,-128,-80,-44,-26,17,9
119,21,37,66,37,9,-9,9
-41,-40,-7,-21,9,1,-8,-3
-77,15,-23,48,35,12,3,-20
127,-13,-39,-27,-23,-5,12,-3
-34,-71,-22,-5,-15,-9,-11,-24
-49,13,-20,-33,-65,12,25,-2
101,-38,115,92,92,5,27,100
-63,-30,8,-33,-18,18,-19,-51
-24,9,-51,-38,-17,2,4,12
20,-16,66,-7,-12,-11,-8,-22
15,-11,-82,9,8,-4,-5,2
13,12,-14,2,-18,-50,-36,16
-23,12,48,-42,-16,41,29,-36
15,8,-25,26,23,31,17,24
-3,38,47,16,7,32,24,3
-68,-42,9,20,8,5,28,0
12,35,-30,-8,-11,-25,-24,29
-27,-21,0,11,9,-37,-34,-33
26,16,-12,7,11,23,19,15
7,7,-93,-55,-40,-18,-3,-16
13,10,78,27,2,-5,-11,0
-58,-33,-40,7,13,8,-4,1
10,-9,-8,-14,-20,-39,-35,-5
-2,0,8,-14,-16,-12,-7,-5
-3,10,6,32,16,31,22,-6
22,-8,-25,-7,9,-3,6,19
-24,-9,28,-4,-3,-1,-23,-9
16,9,-13,-1,0,-1,3,-6
9,-2,-10,-7,-2,-6,2,4
-25,-24,-58,-7,-8,-5,-7,-13
10,26,58,9,7,-5,-1,3
-9,-2,4,-19,-4,-2,-4,2
14,12,45,10,-8,-2,-2,-2
-16,-12,-45,-21,-1,-3,-5,-5
-10,-7,-7,22,6,6,4,1
26,21,39,-7,-3,3,8,8
-5,-17,-37,18,1,8,9,-4
4,12,53,-5,4,-3,-11,-3
-2,-6,20,8,11,5,8,1
3,-10,39,-18,-14,-16,-7,-8
1,2,11,10,-12,-2,-7,-3
1,8,78,23,18,23,21,9
1,10,25,41,-6,-8,-5,-6
3,-3,-56,-27,0,-1,1,-2
-1,1,16,21,6,-9,-3,2
13,22,-2,66,10,-2,1,6
-9,-16,-62,-88,-16,-10,-1,-2
-1,-4,27,63,4,9,-10,-10
1,-7,-39,-66,-4,-7,11,1
-1,3,2,29,-11,-23,-16,-1
1,6,-4,-5,12,15,14,0
7,-4,-19,-30,4,-13,-15,-5
-3,-27,-35,11,-4,-4,-11,6
-3,2,-37,-38,2,24,32,2
-1,9,82,67,0,-12,-15,18
25,14,-5,-3,10,24,32,36
5,26,84,46,3,-6,-15,-39
-26,-34,-43,-25,-16,-23,-21,-18
3,6,-19,18,3,1,1,-2
1,18,59,28,-4,-9,-1,6
-4,-36,-111,-7,-1,1,7,8
3,11,57,-20,-5,8,1,4
-6,-2,41,53,9,-16,-8,-13
2,34,114,16,4,14,-9,-27
-14,-33,-76,-59,-15,8,11,29
2,8,61,40,-10,-14,-29,-18
10,10,14,-20,9,21,33,66
-37,-40,-106,-45,-16,-10,-13,-92
16,33,127,38,8,27,20,6
-1,-14,-122,-40,1,16,8,14
4,24,12,0,10,-15,-10,-17
-11,-47,-128,-26,-14,-21,-12,38
17,31,29,-26,-1,-9,-11,-4
-21,-9,11,-41,0,-10,-4,-35
6,5,12,27,1,25,14,15
-5,-2,73,3,3,16,18,7
3,5,38,66,8,2,-5,-1
18,33,47,-47,4,-8,-6,21
-21,-47,-19,36,-5,-11,-18,-26
11,-6,-19,-38,2,-3,-4,11
-17,-8,53,-25,-13,-11,4,-12
8,9,42,35,10,20,24,16
-6,-22,-41,-52,-13,-9,-2,-23
17,22,15,8,4,-2,-2,63
-22,-31,-25,19,3,14,4,-28
13,40,86,73,13,-8,-1,6
-26,-81,-119,-79,-26,-3,-14,-23
2,8,65,28,3,-15,-10,8
-2,1,19,-27,2,4,17,3
-7,-34,-47,-42,-12,8,4,4
10,42,30,5,3,-9,-34,-7
-10,-2,-1,8,-6,-2,-2,-16
-5,-9,-54,-31,-12,-1,19,7
-2,-12,-33,13,0,-8,-3,-11
-1,-15,-14,-18,-7,12,-24,1
6,12,-5,-20,6,-2,12,-2
0,27,-27,17,14,-22,-34,-51
17,-41,-36,-12,0,31,69,82
15,69,32,-12,0,-7,-16,-5
-12,-19,-30,18,-13,9,51,2
8,16,34,12,0,-8,-10,7
-6,15,2,-50,-25,-23,-41,-19
3,4,15,35,-32,-6,21,2
1,-10,33,76,58,15,-9,-11
2,8,33,-3,12,-4,-3,14
-1,3,-81,-10,1,-7,-19,-16
-16,-58,-112,-66,-34,-10,4,0
-4,2,23,-3,-34,-11,-15,-14
3,-11,11,-6,9,12,1,11
-6,2,17,33,-5,-5,-8,-9
1,16,-6,15,11,3,16,-2
3,-6,-5,-11,-13,-10,-8,0
1,-23,-45,-32,-29,3,-1,5
2,18,102,63,53,3,-3,-9
1,28,52,30,22,-6,-3,-1
-5,-19,-44,-9,1,4,4,-5
1,14,83,-13,-24,1,-5,8
6,10,33,18,-23,-11,-6,-6
-5,-15,-16,-14,15,3,-2,-2
1,17,24,-5,0,-10,-1,-1
0,1,8,6,-8,-8,-9,4
1,10,18,-2,2,8,-2,-9
-6,-10,6,-8,9,4,15,5
-2,-10,4,-8,-19,-1,-7,-7
-4,2,-24,1,0,-11,-3,3
-7,-7,-39,-7,-6,-23,-14,-7
4,10,4,7,41,34,10,4
0,-2,-9,1,-1,-1,-9,-8
2,4,14,21,3,0,13,1
1,9,-4,-27,-13,11,12,6
-2,-12,-20,-12,-17,-20,-2,-7
-8,-17,-76,-15,-6,-7,0,18
0,1,11,2,9,5,-21,-19
7,18,-54,-16,-9,2,1,10
3,7,29,-8,4,-11,7,-1
-1,11,26,28,27,2,-16,0
-13,-48,-70,-14,-4,4,5,1
3,15,-13,-22,-3,-5,-4,-10
4,21,48,17,-10,3,-4,0
-3,1,11,-12,-2,4,0,-7
2,-4,-3,23,6,-7,-1,-1
-9,-5,26,-4,5,5,5,-5
2,-13,-41,-24,-9,-6,-8,-3
6,14,32,-20,-31,-3,0,-6
-9,-14,-30,20,38,2,3,1
1,-12,-48,-10,8,6,-2,3
-3,4,-29,-16,-18,-11,-6,-2
-7,-4,8,19,-22,-1,2,-7
8,20,29,-10,-8,2,0,7
-10,-21,-35,6,2,-5,-7,-5
1,-7,-5,16,27,4,5,0
1,1,-4,-2,-13,-3,2,-6
3,12,3,-2,-6,-4,-9,-1
