-1,3,24,-15,-15,-3,-3,-2
-2,-3,-24,18,19,7,0,-2
1,10,4,10,11,3,0,1
-5,-20,-31,-14,-8,-4,-1,-5
0,-1,-5,-1,4,-3,-1,0
0,1,8,-6,-8,0,1,-1
-4,-3,-6,-4,-3,-2,0,0
2,7,18,3,3,2,1,1
-4,-5,-9,0,-3,-2,-1,-1
1,-3,-8,-6,-4,-5,-3,1
-1,0,-3,-2,-3,-2,-2,-2
1,-1,-18,-12,-5,3,-2,-1
-4,-3,1,2,3,3,1,0
-2,1,10,4,-3,1,0,0
-3,-2,8,-6,-6,-6,-1,0
2,9,8,11,3,-3,-1,0
-4,-4,-8,-2,8,4,1,0
-2,-6,-17,-4,2,3,1,0
1,1,-22,1,-3,-4,-1,0
1,0,4,-3,0,-1,-1,-1
2,12,22,1,-3,0,-2,0
-6,-12,21,3,3,-4,-6,-3
1,-1,6,-5,-3,-2,-3,-1
-1,-2,14,0,-3,0,0,-1
1,8,3,11,7,-1,0,-1
-1,-5,-5,-9,-5,-2,-2,0
-3,-5,-29,-7,-3,2,0,-1
-1,-1,-6,-9,-1,-1,-1,-1
2,2,12,3,-5,-2,-1,-2
-1,3,3,11,8,5,1,-2
0,1,18,6,3,0,-2,-3
-2,-2,-4,-5,-4,-3,0,0
-3,-6,-11,-6,-4,-4,-1,-1
2,6,13,-6,-10,-6,-2,0
-1,-3,-19,-5,-8,-1,-3,0
2,8,16,11,14,4,-2,1
-5,-15,-20,-2,-5,-1,-1,-1
0,0,-19,-10,-4,-4,-2,-1
-1,-2,-24,-9,-5,1,0,0
-2,1,9,1,-1,-2,0,-1
3,4,-5,1,-3,-3,0,-1
-2,-3,6,1,-6,1,-1,1
1,-3,-18,-6,0,-1,-2,1
-4,-10,13,-12,-5,-5,-4,-3
-1,-2,-1,9,4,1,-1,-3
2,2,-17,-12,-2,-1,-1,-1
0,6,-7,4,2,1,0,-2
-2,-6,6,-9,-5,-1,1,-1
-2,-6,-11,2,3,-2,-3,-2
2,4,13,5,-1,-3,1,0
-2,0,15,6,9,-3,0,-2
-1,-5,-26,-3,-2,1,1,-2
0,-1,7,-2,-2,1,-3,1
-1,3,-10,-2,0,-2,-2,-1
2,5,38,7,-3,0,-1,-1
-2,0,9,3,-6,-6,-1,-1
-1,3,22,3,-1,1,-1,-2
0,3,-24,6,5,1,-1,0
-4,-11,-8,-23,-12,-6,-2,-2
-1,-3,-25,-21,3,-1,0,0
-4,-8,-46,-9,3,1,-3,0
2,7,58,-2,-2,-1,-1,0
0,1,0,16,4,1,0,0
-2,-2,-19,-5,-14,-3,-2,-2
-1,-1,0,2,7,3,1,-1
2,3,10,6,15,5,0,2
-6,-7,-7,5,4,3,0,-4
-2,-3,-8,-4,-1,2,-4,-2
-4,-12,-27,-31,-14,-7,-5,-4
-2,-6,-14,25,3,-2,-2,1
7,15,10,-24,0,2,3,3
-10,-11,29,33,-19,-12,-9,-7
-4,-5,53,-34,12,0,-2,-2
6,7,-119,3,6,6,2,2
-8,-15,-11,-39,3,-4,-3,-2
-3,-14,29,5,-4,-2,-1,-1
-3,-1,-32,0,-1,-3,-4,-4
3,3,-25,-5,5,0,25,22
-4,-7,-17,0,-6,0,-21,-16
2,9,-59,-30,-2,5,-1,-16
14,34,47,66,33,6,7,8
-10,-7,19,-7,-13,-4,-15,-10
-3,-13,-60,-59,-28,-9,4,2
-6,-14,28,36,20,3,3,3
7,15,-65,-50,-26,-3,7,0
0,-5,-22,23,-29,-8,-6,0
7,34,63,-17,46,12,7,11
-11,-24,-36,59,1,-8,-13,-8
-10,-29,-21,-66,-33,-7,1,-1
5,34,127,55,38,3,-1,-4
-18,-46,-94,-23,-54,-17,-7,-10
13,17,-20,-16,58,20,13,9
12,38,76,67,15,9,5,9
-22,-58,-77,16,2,-16,-16,-15
-2,-9,65,-16,-38,-7,-6,-7
4,16,2,-32,-36,-5,4,8
10,16,33,56,12,4,1,2
0,-3,58,44,28,12,4,-1
-5,-12,-31,31,12,-6,-3,-6
-2,6,87,-23,28,5,0,2
-5,-14,26,58,-9,-5,-5,-1
4,3,51,-99,-24,0,-3,-2
14,45,17,106,67,17,13,15
-6,-30,-10,35,-9,-4,-5,-9
-13,22,104,-44,-45,-16,-13,-16
1,0,60,27,1,1,4,3
13,24,77,63,-24,4,3,8
1,-4,-48,19,-20,-10,-8,-1
16,54,96,-28,104,29,12,10
-9,-29,2,-12,-26,-10,-4,-5
-8,-14,21,-20,-7,2,-3,-6
1,18,-86,21,-27,-8,-5,-1
-4,-15,-102,48,0,3,0,1
15,11,-116,-106,-7,0,-1,5
-14,-7,41,-26,25,-3,-6,-8
12,12,-72,15,41,10,10,7
-29,-78,-128,1,-84,-29,-17,-16
16,18,-43,-91,-2,11,7,5
14,36,53,74,13,13,8,6
-7,-9,30,76,34,4,-2,-1
15,43,95,-93,-37,-8,-2,1
-10,-40,-24,66,49,12,3,-1
8,60,22,-34,-38,-8,0,5
-17,-55,-19,-128,-56,-16,-8,-7
-4,-29,-27,127,80,23,4,0
1,34,33,-94,-97,-21,-9,-6
19,25,38,95,75,23,15,14
0,33,127,-27,-48,-10,-6,-6
-5,0,-27,27,-2,-1,-4,-3
-24,-45,20,24,-25,-20,-14,-13
7,15,-4,59,19,5,3,2
6,4,-62,-119,-81,-14,-2,2
-14,-17,-48,-56,21,-8,-9,-9
-6,34,37,72,4,9,3,-1
-27,-64,21,-44,-67,-30,-18,-16
-8,4,-23,5,75,13,0,0
-19,-49,-42,6,-106,-30,-13,-9
20,56,4,-10,46,15,15,13
-48,-110,-128,-109,-3,-14,-14,-21
10,17,24,-17,-50,-4,7,7
13,13,62,89,37,15,3,3
4,-11,-23,-64,-1,-1,-1,2
4,38,32,88,-24,2,-6,-7
12,5,75,-12,70,11,6,7
13,22,12,38,-17,10,14,11
-37,-50,-26,-63,-13,-20,-20,-22
12,7,-8,49,-21,-5,3,8
6,5,14,127,60,27,11,10
27,77,118,44,95,36,19,17
-10,-53,-34,49,53,18,-2,-5
16,-6,30,18,15,12,6,5
-5,28,30,52,-45,-23,-11,-7
-11,-80,1,-48,-14,0,1,-1
8,78,96,103,29,6,5,1
-55,-90,31,-85,-49,-41,-32,-32
-7,-19,13,2,-14,-2,-3,-3
8,3,-116,-128,-24,-4,-2,3
9,10,65,34,63,39,12,9
-9,-12,-60,70,36,13,1,-6
-11,-24,-17,-36,-30,-11,-8,-7
-20,-18,-43,101,-112,-47,-21,-16
13,30,81,-55,-4,-4,-1,1
9,19,-30,-105,-16,0,7,9
-2,-3,-7,-73,-27,-2,-2,-1
-1,11,19,-50,35,9,4,1
-22,-35,68,64,-22,-8,-10,-13
17,25,-75,3,-25,-3,4,4
1,-23,-101,41,-54,-11,-1,-3
10,-25,-27,-55,26,19,14,12
-3,3,-22,121,-66,-19,-6,-6
2,-15,28,32,27,6,5,5
3,35,2,-63,-42,-3,-4,-4
-29,-77,-15,-50,-7,-18,-12,-14
15,-29,-51,-41,-9,1,3,10
5,44,17,-10,-51,-19,-6,-4
30,62,119,-9,29,16,12,15
25,53,8,-32,90,47,24,18
-30,-38,-13,-15,-47,-38,-27,-24
7,41,51,-123,-17,-10,-4,-1
-12,-21,-33,41,-33,-16,-8,-11
-6,19,-51,-6,-60,-23,-14,-10
8,13,8,-44,20,17,9,5
34,-5,-83,-8,19,16,13,16
-6,35,69,15,62,8,6,4
-18,-72,62,127,-13,-11,-13,-11
4,23,-28,102,-35,-16,-7,-2
-27,-117,-103,-52,-75,-6,-4,-3
23,67,117,26,54,35,12,9
-13,31,22,-50,-70,-17,-7,-8
7,2,-22,-30,-29,-12,-1,2
-24,-39,-17,127,-45,-47,-17,-14
16,-3,-35,-9,37,24,18,16
5,5,119,-101,-9,5,3,1
-13,-42,45,-75,-55,-2,0,-5
22,80,127,55,-26,-13,-5,-2
-4,-12,-30,-47,43,13,0,0
-34,-57,2,62,-52,-33,-17,-16
7,-21,-8,69,-80,-15,4,6
-4,-15,34,-104,22,17,3,1
7,29,70,127,9,-17,-10,-5
14,62,33,96,5,7,8,8
-8,-20,-93,-49,-59,-15,-5,-5
48,88,105,46,53,48,25,26
-91,-128,-18,-40,-88,-53,-37,-42
14,50,10,-70,-85,-47,-16,-4
26,91,25,18,-38,3,9,11
-14,-50,6,-49,25,16,2,0
-10,-65,15,-94,-85,-13,-7,-7
5,25,85,-61,-32,-17,-9,-5
-27,-68,-4,17,8,6,-1,-6
-28,-87,-102,-88,58,20,-3,-11
4,-1,59,77,81,22,11,7
-19,-70,25,-62,13,-9,-7,-8
63,89,-117,-29,66,27,15,24
16,87,28,51,99,76,23,15
1,-3,-32,-34,16,2,2,0
15,40,-10,46,77,42,11,7
-18,-92,74,57,22,-4,-3,-5
0,33,123,-51,-121,-62,-18,-9
20,83,-41,127,92,92,29,17
32,48,-58,-54,-8,32,15,12
-52,-92,21,-74,-108,-80,-34,-29
7,66,32,29,30,24,10,8
4,17,4,-76,-105,-61,-21,-10
-61,-86,-16,5,66,7,-11,-24
3,-5,-39,41,48,-1,3,2
-2,-21,3,124,35,27,7,0
18,66,58,-97,37,9,4,8
40,23,-82,127,105,85,34,24
-17,10,14,-31,-40,-19,-13,-12
-3,34,-16,24,-108,-48,-19,-12
11,-18,89,3,-30,19,11,10
-13,-32,-59,-34,-65,-20,-3,-4
5,90,43,7,127,48,14,5
14,39,-101,54,14,23,15,13
-10,-14,-97,-111,-128,-69,-24,-14
6,-2,-85,-93,-25,-11,-1,2
20,54,64,-111,-48,-4,4,7
-17,-35,36,84,19,12,4,0
-8,-59,-66,-78,-88,-30,-10,-9
-12,16,127,-51,-65,-34,-17,-11
10,1,-98,104,58,71,19,11
7,-16,42,-128,-100,-66,-19,-3
17,72,74,127,127,89,32,18
4,-12,44,62,-9,0,0,4
-22,-29,64,-28,-121,-56,-23,-18
-1,-25,-75,72,61,13,-2,-6
-1,14,-47,127,104,51,19,14
-17,-32,-45,-115,-105,-44,-14,-12
12,96,-16,-56,46,-5,-2,2
16,44,-22,44,-55,-9,10,8
9,81,40,-88,11,3,-3,-3
-6,90,58,60,-1,-6,-8,-8
30,51,-40,33,-50,-22,-6,4
-12,-34,25,-128,-6,18,5,4
-24,-30,38,90,-32,-24,-14,-12
-5,-15,-18,127,100,45,10,4
-9,-26,40,42,-104,-27,-4,1
-33,-35,75,-39,-73,-51,-30,-27
22,-15,-52,-106,-1,23,14,12
-2,9,127,-69,-62,-39,-14,-8
-5,11,76,79,113,50,14,4
-12,-46,-3,-83,-26,-9,-7,-8
-10,9,9,12,-94,-45,-17,-8
-7,-56,-75,-53,-22,-10,1,3
16,21,-39,-47,52,20,5,5
45,111,37,92,62,51,27,25
-21,-60,-1,15,-44,-30,-17,-14
22,35,26,-72,64,38,19,14
-21,-24,-32,-49,26,-7,-13,-13
-1,8,89,80,82,44,12,4
10,2,-50,-20,25,18,10,7
-5,43,11,51,-76,-33,-15,-13
-44,-83,-89,1,-81,-30,-13,-15
-29,-27,-95,-70,-56,-40,-20,-18
12,55,-63,108,6,-4,-3,-1
11,45,89,-42,6,0,0,5
11,-15,-3,0,-34,-5,2,3
-24,-87,-119,-128,-128,-77,-32,-21
-35,-85,25,35,21,-2,-9,-18
22,-7,-74,-9,-40,-2,6,7
8,7,24,-59,38,17,9,7
-48,-74,-87,-25,55,-6,-17,-24
30,61,-30,37,75,39,16,17
-14,-56,-75,71,-76,-31,-16,-12
-2,17,57,64,70,17,-1,-3
35,52,3,-26,44,33,21,21
-26,-28,14,99,-35,-40,-22,-18
-9,-3,62,30,124,31,1,-7
-17,-24,-71,93,-115,-34,-15,-15
8,-46,-2,88,75,25,11,10
21,38,35,-128,-107,-17,4,11
-2,-4,-73,-82,-93,-43,-6,-1
2,-23,74,-8,84,57,16,6
14,81,11,13,-36,-10,-5,-1
-7,-5,31,32,-29,-5,3,3
-8,-2,-76,-57,51,8,-4,-9
19,23,104,58,98,42,20,16
-1,-4,36,-51,-55,-33,-11,-7
3,55,4,12,73,37,8,4
5,34,23,60,28,25,10,7
-9,15,43,-128,-126,-39,-14,-9
36,69,105,52,33,28,20,23
-31,-37,60,85,-24,-28,-19,-20
7,31,102,78,-18,-9,-3,-1
-3,11,-57,-128,-102,-30,-11,-8
-16,-47,-57,57,-52,-6,-3,-6
7,-29,63,-35,61,42,14,9
-13,-59,-33,-6,-40,-1,-2,-1
12,62,55,-67,13,21,9,10
-28,-56,-83,71,7,9,-6,-13
4,-21,-84,28,-128,-52,-14,-6
-5,-12,96,-75,-45,-23,-12,-8
28,45,9,-45,39,23,16,17
-2,23,84,-120,43,5,4,3
-11,-38,-100,-80,82,17,-3,-4
11,3,-98,-11,-89,-32,-7,3
25,45,-22,75,60,51,23,17
-7,56,-48,-67,-3,9,-1,-6
-3,-22,26,-87,-43,-15,-2,-1
-9,-28,-40,44,-24,-19,-6,-2
-2,-24,15,-62,65,13,3,2
-14,-40,-60,-2,-65,-30,-17,-13
-13,9,-52,-79,-128,-60,-23,-19
20,26,-68,-10,55,23,11,12
-40,-110,-68,127,-43,-43,-24,-24
19,51,4,16,-20,1,8,10
-4,7,40,-59,-94,-43,-17,-10
-10,-46,58,127,66,40,16,6
5,28,-73,91,-95,-48,-17,-7
1,19,46,39,-4,1,-1,-2
15,14,-33,-21,8,6,2,2
10,30,-98,25,42,34,12,9
-27,-26,-7,-89,-71,-22,-16,-18
6,31,-14,75,-84,-29,-11,-7
-21,-54,-2,-70,0,-8,-6,-5
-10,53,-41,98,-32,0,-5,-7
21,82,-83,-120,-81,-12,0,5
-1,23,82,38,4,-14,-6,-2
7,21,-31,74,54,29,9,8
-2,-3,46,-14,0,-3,-3,-4
9,-39,15,85,121,39,19,12
-13,-45,-78,70,39,11,-1,-4
12,38,51,-41,-112,-54,-12,0
-16,-35,59,-65,34,21,3,-5
5,-23,-17,-81,-115,-34,-7,1
-3,-62,3,-82,78,30,6,2
41,76,93,-14,-9,10,16,18
-35,-82,-56,-74,14,-24,-17,-20
9,46,112,-55,88,29,11,9
-8,-17,82,-46,-56,-18,-5,-2
11,16,-47,-113,-36,-9,1,3
12,7,27,-38,-31,0,3,6
-4,2,-57,127,4,-13,-7,-5
-23,-33,-6,34,30,1,-5,-5
-5,-19,2,51,-13,3,-3,-4
4,-28,38,127,36,24,10,6
-14,-28,-12,-62,-80,-33,-11,-10
-2,7,-62,44,17,5,-4,-4
10,-3,-15,41,77,29,12,11
2,-6,28,-7,-9,-9,1,4
-12,-32,-27,64,-18,-9,-6,-5
13,53,77,-26,2,9,5,5
-5,-6,-1,69,-31,-11,-4,-5
5,10,-6,-97,39,29,12,8
-8,-22,-32,67,10,0,-7,-6
10,25,114,-104,-32,-12,1,2
-21,-48,23,-29,53,14,-5,-10
21,84,86,86,-54,-19,-6,4
-9,-10,121,-26,23,5,1,-1
-1,-9,-121,-116,-28,-12,-4,-2
-31,-86,-5,-27,49,19,-2,-8
-5,20,-69,-20,-105,-46,-15,-13
2,15,67,-43,31,9,0,-3
-1,2,14,64,21,7,3,0
6,44,29,22,-20,2,3,3
-11,-20,46,-95,-40,-21,-13,-11
-26,-63,-87,68,67,22,-1,-7
-14,-49,12,6,-19,-10,-6,-7
-4,9,31,1,-4,-1,-1,-1
0,15,25,-48,-1,-6,-3,0
6,24,2,6,-16,-6,-4,0
9,12,22,42,-1,11,6,3
-3,-32,-59,1,32,13,7,0
3,11,50,26,47,18,7,2
-9,-28,97,-1,-24,-14,-5,-4
2,-3,-8,35,-6,-2,-2,1
-2,0,-15,-54,-15,-6,-4,-3
2,6,-12,45,-2,3,-2,-2
7,17,-28,-26,-8,1,1,-8
5,1,-69,-35,-4,1,-2,12
-4,15,9,69,2,3,1,0
-8,-26,-56,-21,-2,-9,-7,-5
-3,-6,-61,-52,5,-6,-8,1
3,25,39,19,2,2,3,-12
-1,3,-8,33,12,11,13,3
0,0,-4,6,2,-28,-20,1
2,15,16,9,2,12,7,0
4,-1,-20,4,-2,41,22,2
0,0,-9,4,-7,-16,-22,-31
-10,2,-11,-11,11,51,56,33
15,-2,-24,12,-6,-1,10,29
2,18,12,-1,-9,-37,-22,-5
-1,-6,-18,-17,0,-43,-40,7
-3,-18,-22,0,-2,13,-17,9
7,15,-3,3,12,46,47,-36
