-5,-13,-7,0,9,1,-1,-2
-3,-1,-7,9,0,-3,-4,-4
0,-11,-18,-4,0,-1,-3,0
1,11,7,-3,3,3,1,-1
2,6,16,-4,-9,-1,-1,0
-1,-11,-3,5,6,-1,2,1
1,4,-13,-6,-5,-3,0,0
-2,3,9,-6,-9,-5,-2,-3
-1,-2,1,-1,4,0,-1,0
-3,0,4,12,2,4,-1,-1
-2,-5,-13,-29,-12,-1,-1,-2
-2,6,27,21,15,0,0,-2
-3,-1,0,6,3,-3,-3,-3
4,20,25,6,-2,-2,0,0
-8,-23,-37,-17,-13,-7,-3,-4
-2,0,8,-13,-5,1,1,-2
2,-9,-19,2,3,1,0,3
-2,10,-6,-3,-2,-1,-3,-2
0,10,22,14,3,-1,-1,-1
0,-9,-10,-16,-2,-3,-3,0
0,-6,-4,3,2,-3,1,0
-2,-11,-14,-4,-6,0,1,-2
2,4,15,19,11,1,2,1
1,6,-2,-2,-2,-1,0,0
2,9,3,-13,-14,-3,-3,-2
-2,-11,-24,-1,3,0,0,-3
-1,1,13,-9,0,0,0,-1
-1,-5,7,15,-3,-1,-1,-2
-2,14,12,-2,5,1,1,-2
-4,-8,-10,-15,-5,-2,-3,-2
-1,2,-10,16,10,2,1,-2
-1,-12,-34,-9,-1,-1,-3,0
2,4,12,-6,-7,0,-2,1
-4,-16,-16,4,3,-1,-1,-2
-2,-5,3,-15,-10,-1,-2,-2
2,13,15,5,-3,-4,-1,-1
-3,-20,-26,-18,-10,-2,0,-2
-1,-10,9,33,22,5,0,2
1,-4,-12,-4,0,-1,0,0
-1,-3,7,2,2,-2,0,-2
-2,-1,-2,-2,2,2,0,-1
1,9,9,-11,-12,-5,-3,-4
-1,-3,11,3,-1,1,-3,-1
2,4,-4,-13,-2,-1,-3,0
-3,-15,-6,2,-7,-3,0,-1
2,16,7,1,-7,-1,1,2
-2,7,11,9,5,1,0,-3
-3,-6,-9,-18,-11,-2,-2,-2
-1,-6,-10,12,7,-3,-3,-1
-1,-3,19,-19,-17,-5,-3,-2
0,3,-11,22,1,-2,-2,-2
-5,-12,-27,-3,5,2,2,0
3,6,42,-1,-7,0,0,0
-2,-4,-6,0,3,0,0,-1
0,7,-7,-14,-7,-4,0,-1
-4,-11,-7,-3,-5,-2,-2,-2
2,10,-2,1,1,0,-2,0
-1,-12,-11,2,16,3,0,0
5,11,21,5,-2,4,0,1
-4,2,1,11,2,-1,0,0
-6,-10,7,-11,-4,-5,-2,-3
-1,-3,-19,2,-4,-3,0,-1
-1,1,5,-4,11,1,-1,1
1,-8,6,0,6,1,-1,-2
1,14,4,10,2,-3,-2,-3
-5,-6,-19,3,6,0,-1,-1
-5,-5,2,6,1,2,3,0
2,7,9,-15,-2,1,0,2
-2,12,-1,2,3,3,1,-1
4,6,12,-2,6,-2,-3,-1
-3,-7,7,-1,-15,-4,1,1
-5,-3,4,-7,-7,-5,-4,-2
0,2,18,11,8,2,-1,0
-4,-11,-47,-11,-1,-1,-3,-1
2,0,13,-1,3,2,-2,-1
0,1,-20,-10,-13,-2,-2,0
3,-6,6,-1,-1,-3,-3,-2
-3,9,1,-11,-11,0,-1,-2
-2,-15,-10,-10,-1,-1,-1,0
-13,15,12,13,-2,-2,-1,-1
6,-17,-23,-2,5,2,0,3
6,-6,11,3,-2,-1,-2,-1
1,1,-4,-25,-11,-5,-3,-2
1,6,9,-3,4,1,0,-2
-3,0,5,51,37,9,1,2
10,8,9,-2,-11,-3,-2,-3
-16,8,-5,-2,-1,1,-1,-3
12,-17,-16,-2,9,-1,0,2
13,4,4,-17,-20,-7,-3,-1
-22,-15,-14,7,9,-1,2,0
5,4,23,-11,-1,0,1,-3
-3,20,17,12,-6,-1,-3,-2
-5,-8,-31,-8,-2,-2,-2,1
6,11,-9,-2,-6,-1,-2,-1
-1,-3,-3,-2,-10,-5,-3,-1
-16,-14,-4,-18,-3,6,1,1
4,-8,-9,14,-2,-3,-1,-1
6,9,11,5,-3,-2,0,1
-1,-5,-8,1,2,-3,-1,0
9,7,-7,-3,-21,-7,-2,-3
-16,4,11,-13,9,4,1,-3
47,10,-6,11,20,7,5,3
-49,-18,-8,-12,-10,-4,-1,0
13,-5,16,20,8,-1,-1,1
-28,-19,-25,-20,-24,-6,-3,-7
-6,21,27,11,3,-2,-4,-6
14,5,-3,6,12,3,1,0
15,-21,4,-10,-15,-5,1,7
0,-16,-13,-21,-2,-1,-2,-2
-6,-6,23,-4,-5,2,1,-2
17,28,-7,17,3,-2,-3,-5
-32,-2,-21,14,10,3,0,-6
23,-7,-18,-16,-11,-4,1,5
-6,-9,-5,-15,-21,-5,-4,-6
-46,-8,-9,40,21,2,1,-3
60,-5,4,0,13,2,5,19
-2,18,8,10,3,-3,-4,-10
-26,-5,-4,-14,-10,0,1,-1
45,-13,-9,-8,-23,1,0,3
-7,8,-10,-3,12,-1,-11,-29
-49,58,7,3,1,3,4,3
32,-44,5,-14,-13,-2,15,38
-43,-16,-1,-30,-7,-5,-3,-4
58,41,15,25,4,0,0,1
-50,-63,-10,26,16,-2,-7,-4
5,27,-7,-35,-10,-9,-12,-27
39,1,5,1,-8,4,5,15
-52,26,-9,-24,-22,-7,0,-14
110,49,18,7,15,8,3,6
-76,-86,-61,0,-11,-2,6,21
-15,-20,-21,35,18,-3,-17,-26
9,61,60,-29,-21,2,7,17
23,-32,-12,3,-6,2,0,-11
13,25,15,-23,8,-1,-4,-24
-20,-32,14,26,11,6,-1,6
-3,-47,-82,-12,4,-19,-9,17
-86,1,88,73,2,-8,-3,-17
122,50,-1,-51,-35,-5,1,30
-20,10,36,36,23,8,-3,-36
-56,8,-25,-24,1,10,8,5
14,-46,-128,-55,-19,-10,1,22
30,61,6,49,-27,-16,3,-11
-50,22,25,-49,-39,-2,-6,7
58,-23,25,46,43,0,-3,21
-79,12,56,36,-13,-2,-20,-43
66,-25,-4,21,-1,-2,6,34
87,7,-9,-29,6,6,12,13
-39,51,35,29,26,9,4,-16
-62,-52,-45,-78,-26,-7,-6,-29
22,62,2,21,-3,12,9,8
-99,-44,-5,-59,14,-8,-28,-35
-64,38,14,89,35,3,-11,-6
119,-82,-24,-10,23,-1,-1,27
-128,11,4,-66,-24,-8,-8,-13
36,17,28,30,-35,-6,2,14
11,26,-68,-121,9,7,6,-1
-40,-7,20,36,29,8,11,5
-11,8,27,19,-9,4,-14,-31
-19,42,-56,18,37,1,16,24
23,-128,6,12,-20,-12,11,30
10,81,-18,-25,-31,-15,-11,9
38,10,14,-25,38,5,-10,-31
-102,-50,39,55,1,6,0,2
14,-29,-17,26,-21,2,0,20
-77,11,-61,-59,-17,-16,-35,-80
-24,-74,-17,-3,33,23,28,50
127,-37,-46,-38,-43,-24,-11,-29
-65,64,29,-40,-56,-20,4,21
28,61,74,-29,14,14,-5,-4
34,-9,41,105,114,34,-17,-2
-100,25,-52,-73,-36,-21,25,-8
101,-6,-27,-87,-63,-17,-40,-27
78,127,9,-35,11,10,3,-23
-116,53,-95,99,38,2,10,-9
127,-19,111,105,42,22,6,45
66,6,-114,-94,-22,-8,-17,-35
-101,35,-15,18,-50,-13,14,-48
91,4,-28,0,14,4,-5,50
-115,-9,36,-26,6,-19,-28,16
-83,34,77,111,31,13,6,-75
94,-85,48,17,-7,18,-17,8
-44,74,9,4,-42,-34,13,38
127,17,-81,-91,-66,-18,-8,14
51,1,62,52,39,23,6,-16
-44,-23,-86,-57,0,-5,7,35
-128,-13,78,-50,-90,-29,-31,-76
-27,-88,94,56,35,20,23,-6
-79,50,-2,-37,28,-10,-2,16
118,-53,-36,-50,-20,22,41,43
78,-91,-24,42,22,-13,-24,-14
-52,102,-62,-70,-39,-16,-33,-55
80,-14,17,36,48,14,14,52
-42,14,95,13,21,-2,-9,0
-128,51,43,-35,-13,6,18,-57
41,-8,-5,-78,-35,-1,-24,-24
92,-87,-82,22,5,-5,8,15
-59,-12,80,60,67,-2,-2,41
99,-3,63,40,-6,-3,-18,-77
-44,-21,43,76,40,22,24,7
-14,-25,25,6,-43,-17,0,10
-72,16,-27,-64,-50,-14,-6,-9
102,-48,-93,-4,3,6,36,68
65,56,-18,28,92,17,-1,8
-128,-128,-21,-62,-65,-4,6,-48
-18,77,53,58,11,-13,12,72
-74,42,-56,-35,4,-5,-23,-3
-94,-93,-105,-60,-11,-3,-41,-74
79,74,50,-26,-53,7,39,82
-45,27,8,49,65,8,-17,-71
79,-1,100,15,-43,-17,-6,32
76,-60,-90,51,34,39,52,46
-14,39,-25,-97,-31,-20,-29,-63
-8,-31,42,-25,-31,6,14,6
-28,103,45,89,16,-16,-24,-34
32,-1,60,-2,17,-12,-19,-15
-111,-24,-38,-40,-5,22,24,37
123,4,-32,78,3,-15,-29,4
-74,-43,-26,-58,6,-16,-28,-44
-4,20,8,-47,-38,-9,5,18
-108,-18,3,50,5,-2,-16,-37
88,-39,10,23,12,25,-2,-7
-30,-6,15,-48,-30,-5,52,119
20,37,36,-8,-19,0,0,8
-65,37,-52,-41,-11,-23,-30,-50
87,43,81,81,10,16,8,21
-112,-57,-111,-107,-52,-29,-6,-39
73,-34,44,60,61,13,-28,-30
127,40,30,-10,5,19,37,49
-95,-67,-40,-114,-92,-36,-4,-50
106,67,49,87,118,52,7,1
-73,14,11,-18,-24,-34,-1,-2
35,-33,1,37,13,-6,14,-33
-3,-5,-48,-89,-13,25,-2,50
-6,13,51,-25,-17,5,14,-1
-3,127,-36,0,-48,-23,-13,-38
27,-70,127,127,41,-18,-42,-31
-128,50,-73,-70,-38,-4,-2,-40
94,-102,100,26,52,27,19,-67
-19,18,-60,11,7,-25,42,127
-97,-29,51,-17,-11,-17,-44,-91
75,85,-59,26,26,30,47,22
60,-29,-55,-126,-102,-23,-51,-91
-74,-8,127,120,62,60,64,47
-29,-40,-103,-88,10,-11,21,59
-55,29,32,28,-5,-1,-3,-17
-39,-36,-18,-50,-24,8,2,34
-14,-59,53,0,-23,-3,0,-49
35,28,-11,-18,10,-1,-10,33
20,-105,7,-23,11,-14,0,56
20,-46,37,87,35,12,-13,-14
-96,-32,-66,-80,-56,-28,-47,-100
-15,38,104,28,69,10,10,44
21,-49,-48,-16,-6,-24,2,-37
-19,49,50,-7,-11,56,29,-6
3,52,20,-24,-93,-12,-20,-42
92,-54,-80,120,38,66,58,83
-96,28,-83,-12,7,-69,-38,42
-128,-75,-48,31,9,-30,-25,12
120,105,-54,-41,13,30,13,-39
-88,-96,37,-82,-128,-38,-37,-93
110,21,109,74,108,46,13,55
-124,73,20,98,23,4,47,66
21,-20,-71,-59,37,-27,-37,-5
26,-16,96,1,-13,-5,-12,-39
71,7,-14,-53,-38,19,29,-41
78,-67,-13,-67,-20,-3,-3,48
-22,52,29,-26,-2,-15,-54,-45
-12,127,63,76,20,-27,19,43
51,-84,91,-29,-37,13,5,-5
3,42,-68,-22,-15,26,6,-36
-96,24,85,77,18,25,60,58
116,-63,-38,-13,25,18,-34,-57
-128,-26,-23,-13,-36,-44,10,36
37,81,-82,55,57,-22,-59,-29
-31,-107,-68,-30,-9,-8,5,6
31,40,33,-15,-3,21,0,-18
15,39,70,23,-59,-5,0,-13
28,-53,-22,-12,-15,-10,-3,-7
85,-12,22,26,18,6,21,28
-99,3,-124,-26,8,-3,-18,-32
-37,22,-75,-60,-9,-12,-2,27
60,40,114,-15,-37,-82,-1,74
-92,-22,-24,73,48,60,-3,-32
53,-14,-45,-74,-23,14,45,9
-5,43,107,109,18,-19,-38,-17
-48,-60,-106,-77,-5,-16,-9,-5
-81,46,6,-33,-23,-41,-50,-9
22,48,74,10,4,-3,-4,2
-55,-77,-8,47,-27,27,22,-36
106,-12,58,91,63,21,36,59
-36,21,-20,-99,-24,-19,-4,2
-67,-2,-60,55,43,-15,-34,-18
-4,-2,102,-8,-16,-23,-20,-24
-7,21,28,-63,-56,8,-20,-26
50,-27,-1,18,12,37,74,42
5,24,71,22,2,0,4,19
31,-6,-60,0,17,-16,-11,-10
-47,-22,-64,-55,1,30,-5,-46
60,55,-19,9,-4,-3,8,23
-75,-92,28,3,-12,-20,-31,11
-22,19,31,25,22,3,-3,-5
-43,8,16,2,-9,-8,-19,-54
39,-5,42,-5,-10,2,12,9
-72,3,29,13,-8,-11,-14,-14
116,1,-46,8,16,28,18,14
-59,-30,21,-2,7,35,31,2
4,2,65,7,-21,-34,-24,-2
16,26,-23,-2,3,6,12,18
-23,20,-37,-14,11,11,-26,-14
-29,2,-48,-27,-17,-37,2,-13
30,-3,33,36,0,6,-5,15
-26,2,-24,-5,4,8,3,-9
9,12,12,-4,5,-4,-1,-3
-3,-13,-20,27,-10,-10,-3,-1
-16,-24,-21,-34,-13,-7,-7,-2
4,-1,-48,11,-12,-2,4,2
-18,-7,-12,5,33,10,2,-10
8,34,87,19,6,2,-1,6
-25,-44,-49,-41,-18,-14,-5,-9
12,25,2,-5,-21,2,0,4
1,-11,-48,-19,-12,-8,-2,-8
-17,18,64,29,2,8,4,-3
16,8,-24,25,5,-4,-3,4
11,26,105,2,14,-3,-12,0
-19,-37,-110,-51,-4,36,39,2
-1,1,23,-8,0,-24,-11,-6
-7,-28,-47,26,3,21,17,-2
-15,15,32,31,5,-3,-4,-1
-5,8,11,-30,5,-2,3,-3
-5,-5,-38,-17,-1,4,2,3
2,0,60,16,5,-14,-6,3
-4,-8,-86,0,-2,-2,-1,-5
-5,-10,34,10,-4,-12,-9,-5
6,19,13,9,1,-1,6,5
-5,-9,-89,-12,-1,-11,-13,-6
13,27,84,-26,-1,5,11,6
-12,-16,-69,39,4,-11,-4,-6
-1,-16,-3,-42,-18,-5,-6,-1
0,4,-39,12,3,-2,2,5
4,4,-22,-32,-1,-12,-3,5
-2,8,-31,-2,-2,8,1,-12
-1,6,-2,23,10,13,2,3
0,-6,30,-24,-4,8,8,2
-3,-23,1,-7,-3,10,-4,5
-9,-5,18,-24,-7,-29,-33,-33
-6,10,29,48,14,53,47,15
-4,-6,56,-8,-8,-3,0,-4
2,1,-49,-22,6,-1,5,-1
-4,-12,-24,5,-5,-8,-6,1
2,11,71,-6,-4,-16,-12,-2
1,0,-47,-11,5,-5,0,1
-11,-29,-21,25,-8,-3,2,-5
-1,3,37,-2,3,-1,-2,5
4,8,-20,-22,-2,-9,-7,-1
7,23,103,29,7,6,3,7
-5,-16,-109,-81,-8,-9,-4,-5
11,8,76,22,-5,-6,1,2
-4,-2,57,-4,1,0,-7,0
-7,-21,-59,-10,-3,0,-4,-5
3,20,41,50,6,7,2,-1
2,5,-8,-16,-5,1,5,8
-2,-5,2,9,9,-7,-10,-5
7,16,-3,7,6,-3,-6,-1
4,-19,-19,23,-2,0,3,0
-2,11,47,9,14,8,1,3
-1,-11,-6,-23,-4,-2,-8,-4
-5,-3,-51,1,-10,-4,-3,-2
10,26,16,43,13,1,3,2
-4,-16,0,-15,-14,-8,-4,1
-3,-14,-70,-11,-1,-3,-4,-4
-2,3,69,15,-6,-2,-2,-1
3,9,-1,-46,-10,2,2,0
1,3,-15,-6,-13,-2,-3,1
-2,-6,-72,14,12,-4,0,-2
-7,-15,-3,9,9,-7,-7,-6
-3,3,-6,-7,-2,-3,-6,-4
-5,0,36,14,3,10,7,2
-3,-12,-78,-40,-18,-6,-2,-1
4,9,36,4,-2,-2,-1,1
-10,-44,-64,-16,-6,-6,-6,-6
5,18,29,4,3,1,-3,1
3,11,53,12,-8,-6,1,0
-3,1,15,8,1,0,-3,-2
-2,-4,-3,-11,-4,5,4,-1
5,11,15,34,14,3,3,2
-6,-12,21,9,3,-1,-3,-3
-3,-15,-58,-29,-15,-6,-3,-2
0,7,72,20,5,2,-1,-1
3,12,38,20,18,3,2,2
-5,-9,-8,6,-17,-7,-6,-3
2,7,29,17,32,6,2,2
-1,-3,34,-23,-31,-6,2,1
-1,-6,-37,8,-10,1,-2,-1
0,6,-16,12,33,5,-1,-1
0,4,17,-8,14,5,2,2
-4,-10,-7,1,-2,-3,0,-2
-2,-9,-47,-50,-27,-9,-3,-2
5,12,60,1,-11,-2,1,-1
-7,-20,-39,-4,-17,-8,-5,-5
2,12,39,-1,6,2,-1,1
0,-1,-13,1,2,0,-1,0
-4,0,6,7,0,-1,-2,-3
1,5,14,3,-1,1,3,0
-2,3,-9,-8,-6,-4,1,-2
