1,9,25,2,-3,-1,-2,-2
-3,-3,-8,3,-6,-4,-3,-3
-2,-7,-1,5,14,5,0,0
-2,-2,11,-14,-9,1,-1,0
-1,-11,-28,-12,-9,-3,-1,-1
0,1,2,-5,-2,-2,1,0
-2,-1,2,-4,-7,-2,-2,-3
-2,-5,12,-6,-4,1,-2,-2
-2,2,-7,9,6,0,0,-1
1,7,15,-12,-7,-2,-3,-1
-4,-4,-25,6,1,-2,0,0
0,6,10,-4,-8,-1,0,-1
0,1,18,-11,-1,0,-2,-1
1,11,14,4,-17,-4,-3,-2
-1,-14,-10,4,11,3,1,1
-3,-7,-9,-2,0,-2,0,-1
2,9,7,5,5,2,1,-1
0,-8,-14,-30,-17,-6,-3,-1
1,1,-11,2,-19,-6,-3,-3
2,10,31,4,-1,-2,-1,1
-11,-22,-29,13,18,4,1,-3
0,10,21,7,7,-1,-1,0
-1,0,-43,-3,1,1,-2,-1
1,-10,-2,-26,-16,-6,-3,-2
4,16,5,15,4,-1,-3,-1
-6,-2,-10,-6,1,1,-1,-3
6,6,17,2,1,0,-2,0
-2,-10,-11,-21,-17,-3,-2,0
-8,2,7,16,9,-1,-2,-3
-5,-12,-18,3,6,4,0,0
3,14,32,6,0,-1,0,0
1,-8,-44,-1,-1,-2,-1,-3
-9,-23,1,-30,-26,-5,1,-1
2,6,0,28,31,6,1,0
6,9,13,-13,-2,-1,-2,-1
0,15,13,-1,-4,1,-1,1
-8,-24,-8,27,6,-4,-3,-2
-7,-5,-14,-8,-6,-3,-2,-3
1,15,29,12,7,1,1,0
2,5,-2,-6,-2,0,-1,-2
5,11,0,-6,-11,1,0,-1
5,-2,2,-7,4,0,1,-1
-8,-28,-16,-3,9,2,0,-2
-9,11,6,2,-3,-4,-3,-5
-4,6,10,-9,-6,-3,-1,-2
15,-5,13,12,-2,2,0,4
-2,3,-24,-6,-6,1,-1,-2
-5,-20,-12,3,-2,-1,-2,0
0,30,10,-13,-9,-6,-2,-3
-3,5,-8,-15,9,0,0,-3
-16,-11,3,14,4,3,1,-2
5,8,25,8,-10,3,-1,-2
45,20,11,18,28,2,2,5
-21,-7,3,-2,-8,-2,0,3
-18,1,-17,-1,-5,-2,-2,-2
-16,-5,21,-10,-8,-2,-1,-5
-5,1,-29,-21,-8,-4,-4,-5
4,-6,-3,5,2,3,0,-1
3,-11,6,-5,-1,-2,0,0
22,7,5,0,-1,-3,-2,6
0,-19,-18,-3,-11,-2,-4,-1
36,58,15,0,-1,-1,-1,-2
-33,-28,-16,5,1,6,3,-1
-62,-56,-7,-5,5,-1,-2,-14
38,19,-6,-7,0,0,3,12
10,-12,8,8,-14,-3,-1,7
-16,-31,-34,-34,-24,-18,-8,-7
10,35,15,23,7,1,-1,-3
-22,-9,-1,0,9,4,1,-4
75,7,15,-7,-17,1,-1,3
-44,30,-1,11,25,3,0,3
-2,-46,-11,-13,-7,-3,1,6
0,7,6,4,2,0,-5,-8
-30,2,1,0,2,-3,0,-7
28,3,-11,-17,-31,-6,-3,-4
-10,12,-11,30,50,10,3,7
14,-13,42,-1,-13,-1,2,8
20,13,11,10,-5,-7,-3,-5
-41,-18,-21,-24,-8,-1,-1,-2
-41,22,4,-29,-17,-4,-7,-25
96,25,4,35,8,9,2,-2
-43,-20,-36,-16,9,4,17,38
64,16,-2,-14,-21,-17,-5,3
-68,-91,-6,15,-2,-3,-2,-3
-49,-20,-18,-41,-24,-7,-5,-21
-7,26,1,-46,-39,-2,-7,-24
51,31,32,105,96,24,3,0
49,50,-3,-47,-42,-12,-2,-4
-18,-8,27,32,55,10,3,18
-60,-59,-9,17,4,-7,-9,-13
32,86,18,-16,-31,-8,-3,4
19,-35,-19,10,13,11,8,5
67,-22,-84,-48,-33,-12,-6,7
-78,-10,5,-1,-1,-4,3,12
10,-12,12,-35,-17,-3,6,2
-4,9,-1,1,2,2,-4,-14
5,72,73,62,2,-1,-3,-6
-5,-106,-31,-11,28,5,-1,10
-63,19,-27,14,-13,-15,-20,-42
60,-57,22,-1,16,3,9,34
-54,-76,-37,-47,-15,-8,-7,-10
-65,5,37,-6,-31,-6,-22,-59
28,-21,1,72,3,10,11,20
-23,62,-11,-54,14,8,18,29
-47,-44,-4,17,31,-6,-6,19
40,60,18,-37,41,-1,-3,0
-82,-47,-11,28,-6,-3,-8,-26
53,59,-17,7,-37,-9,-9,-21
-38,-44,-8,-15,-41,-7,-2,3
54,20,-3,45,78,23,0,-18
-43,-50,-16,15,53,22,8,11
93,120,15,-7,-9,-18,-1,19
-30,-93,-11,-100,-70,-8,5,-3
10,57,-19,69,18,-6,3,13
32,-91,16,-38,-11,-8,-13,-5
12,15,20,36,-6,-7,-1,-2
31,91,36,-59,-11,9,6,-27
-22,-89,-22,71,48,23,21,52
35,120,-24,-58,-22,-17,-21,9
-32,28,1,68,51,4,-2,-12
48,-7,8,4,7,-5,-7,-9
-16,18,33,-45,-47,-4,10,-13
21,-24,9,52,-6,7,2,-25
-92,30,-1,-23,6,-5,-4,11
8,30,72,76,37,2,-19,-27
-36,-7,-72,-21,-44,-14,-4,4
-68,17,79,-64,-22,-10,6,3
-65,-9,29,-11,-20,8,-22,-59
23,-13,5,1,-33,-10,19,63
-3,71,67,25,16,-6,0,1
41,-19,-25,-15,5,-2,-14,1
-75,-128,7,3,19,13,28,2
-84,-23,-37,6,-17,-13,-47,-78
118,-22,-9,23,-50,-7,19,81
-112,45,-57,15,-27,-16,6,-14
73,-37,95,12,41,11,-8,30
-128,-39,-71,-5,1,0,12,-39
5,-10,-24,-128,-85,-26,-28,-17
18,-55,-35,72,77,32,8,-12
10,8,-59,-16,0,-3,15,24
23,30,3,33,20,3,6,10
-19,-32,16,-21,-8,2,-19,-44
-29,84,68,-3,-12,-3,-2,8
-12,-43,-85,-22,-36,-4,-3,-9
48,11,-12,-2,41,25,46,58
-11,40,-15,11,28,0,-6,-23
18,-128,-22,-58,-26,-11,-6,7
85,47,37,61,3,-4,-35,-35
-74,-21,-31,-43,-13,38,36,9
-50,-15,20,74,27,6,4,5
37,-67,-70,-102,-10,1,2,1
-39,86,68,28,-9,-13,-6,13
49,-74,29,50,8,-10,-8,-5
-31,40,9,-50,-19,-4,-10,-12
-44,93,-32,21,3,13,-12,-16
22,-58,-12,-98,-1,-12,34,63
-40,16,58,68,22,3,0,-14
80,30,-77,-102,-48,-1,36,42
-31,5,73,76,40,-5,-1,2
62,-87,47,35,13,15,-4,-37
-11,22,-66,-62,-22,-20,-12,40
72,-7,27,63,26,-19,-18,-2
70,-55,66,-42,-37,-37,-35,25
-128,84,-69,-12,-5,34,2,-60
112,66,76,-1,18,39,32,-13
-77,-100,-55,-7,-30,14,17,19
116,-39,-85,35,44,6,2,26
-32,-100,-33,12,-6,-28,-23,-20
5,58,21,-37,-61,-48,-37,-1
-24,-13,-25,3,24,14,15,9
-56,78,60,53,-16,11,5,-11
-54,-39,63,31,103,26,7,11
-17,-1,-39,-9,-10,-17,-25,-16
-46,4,12,-8,8,0,-19,-50
27,98,45,0,-18,29,44,34
-20,74,15,-21,-47,-25,-27,-4
-55,-41,-100,-64,8,-3,-13,-14
-50,-15,127,107,-18,-45,-44,-25
-8,-41,68,-48,31,34,-15,-47
107,110,17,-15,-34,-14,45,64
-86,-66,-18,42,21,53,7,16
3,100,-86,-17,-29,12,47,-19
-32,-82,63,59,48,-2,-23,-28
81,-12,-48,-59,-55,-32,-37,10
94,-19,42,104,52,2,12,-3
-38,-46,26,-90,-11,1,-20,19
-9,-8,40,-14,-74,-16,15,12
-14,-58,-93,81,45,5,-20,16
-11,109,7,-39,-52,-34,-26,-33
36,-17,-4,-9,21,15,18,-10
-34,127,2,-84,-33,-35,-14,5
-16,-25,-19,-31,-46,-47,-62,-62
49,-52,-8,-13,5,46,56,28
1,27,50,9,2,-9,1,10
-117,-57,-128,-13,-11,-2,-28,-33
110,-86,76,83,45,19,24,50
-84,14,-107,-108,-11,-29,-27,11
2,-37,127,80,15,-5,-28,-24
17,-9,-18,-23,-37,-12,27,10
-103,-29,-75,-14,40,15,-22,-89
119,-19,39,22,1,-18,29,109
-17,32,24,-36,8,-29,-63,-36
25,-44,23,30,14,71,74,12
-51,68,-43,-30,-40,-10,-41,-30
1,38,16,-34,5,30,66,7
-82,3,-90,-32,7,7,8,-13
83,-61,69,67,30,6,31,44
33,63,-54,-17,-22,3,-2,14
-22,-1,119,106,24,-35,-103,-87
54,-46,-35,-17,-19,-12,28,54
-45,-13,-85,-77,-62,-34,-18,-38
-69,45,99,10,74,21,18,11
79,-36,-86,3,10,-30,-38,31
24,42,85,50,28,103,67,9
32,31,47,20,-6,-1,-12,-9
-24,71,-86,-64,-62,-32,-8,-6
-83,-5,25,73,15,6,25,-30
15,26,14,34,15,-25,-33,-11
6,-2,-60,2,25,13,-11,20
46,3,107,-42,-19,48,76,31
26,53,30,98,26,5,-23,-31
13,-31,-33,-78,-42,-40,10,20
-61,47,-15,-74,-3,-28,-102,-38
26,-43,60,42,3,18,79,15
-71,-78,-76,12,-17,1,8,28
53,59,88,30,2,0,9,15
-27,-30,-113,-54,3,-55,-42,-30
6,-21,-17,-29,-15,40,22,8
18,32,-24,-2,-3,-17,-28,-13
70,-6,-21,-35,13,12,23,-37
-95,-83,-63,-15,-22,-24,-1,51
25,45,78,57,20,17,7,-4
30,76,96,-19,-2,-23,0,11
-41,-67,-52,-37,-21,-11,-45,-33
78,83,118,27,25,47,59,44
10,-15,-6,-17,-6,-41,-20,8
-80,13,127,-26,-13,22,7,-17
-56,-27,-72,-10,8,-3,-17,-16
69,-25,111,56,-3,6,20,-5
6,7,-87,-33,2,-13,-19,14
-37,-18,6,18,-19,-44,-41,-28
-46,27,-14,-26,9,11,6,11
24,47,-45,35,-1,3,27,0
-2,-31,46,31,21,-44,-36,-2
25,-37,37,-51,-16,18,6,-8
-22,5,-63,2,-8,14,11,-39
-1,31,66,8,-8,-7,5,38
-4,7,6,25,-2,-17,-18,-12
3,8,32,36,21,27,25,16
5,-6,51,43,16,-6,-18,3
10,-7,-25,-17,-7,-12,-16,-24
-25,-12,9,-15,-33,15,15,-2
-4,6,-47,-19,4,-4,-3,-3
28,8,35,25,5,-9,-9,-6
-13,-12,-74,-47,-4,5,4,11
-16,-46,-31,-18,-16,-8,-1,5
-1,29,-5,0,2,1,-12,-7
-1,-10,-1,9,2,2,18,33
4,8,-15,17,7,-7,-9,-42
-16,4,-6,-15,-11,7,-9,-21
0,-9,-21,-37,3,20,3,7
-3,-27,-25,21,-7,0,15,10
-5,6,40,-21,5,-3,0,4
-1,-19,-19,5,6,17,3,-3
-11,5,-53,-17,-15,-21,-9,-13
2,-25,3,16,1,-7,-4,8
19,48,-13,16,10,24,20,21
-14,-5,11,-32,-10,-12,-8,-9
2,-10,6,27,3,-2,9,36
-16,-11,-43,-20,-6,-12,-18,-46
5,-15,34,-10,-4,-9,0,17
-10,-19,-87,20,-3,-1,-5,-4
0,-2,24,-4,-8,-5,-2,-6
7,13,-37,28,10,9,-2,-3
13,5,77,-44,-9,-16,11,27
-5,-8,-15,-25,-7,9,-2,7
-9,-16,25,-1,-9,-11,-5,-22
8,25,26,14,16,-1,10,37
-17,-20,41,56,6,27,16,-52
-8,-4,21,-42,0,-11,-11,19
2,-18,-91,-73,-12,8,19,-22
-5,-1,-7,-68,-11,-17,-21,9
1,-15,-4,63,8,-4,-11,-8
-17,-3,29,95,4,4,-11,-2
13,30,74,-91,-8,11,17,-2
-14,-26,-35,52,-8,-13,-6,-2
-4,5,5,9,1,0,-1,-2
19,17,57,26,9,-12,-11,0
-9,-2,-60,-32,-4,3,3,-8
11,6,17,-22,-6,-6,-17,-1
-6,-36,-59,-87,-9,-3,-2,-10
-8,-15,22,21,-6,39,26,4
-8,2,-11,60,8,10,22,28
21,21,75,-1,0,4,-2,2
1,2,-72,-4,4,-5,-8,-5
0,-1,3,-20,0,-9,-8,0
-5,5,29,-3,5,11,9,-15
-2,-13,-39,17,7,1,-3,18
2,16,101,25,0,-12,-8,5
-3,-14,-86,-36,-9,-6,7,-10
4,10,65,10,6,-4,-11,-8
-2,-6,-61,2,-3,-7,-4,-1
6,-6,-11,-46,2,6,6,7
-10,7,64,1,-4,-2,1,-15
4,6,50,42,7,-2,-7,6
1,0,3,-19,-15,3,4,1
-6,2,40,16,0,-1,-1,-2
-2,-12,-62,-7,19,-3,-6,-8
-4,-8,-40,1,13,-3,-4,6
5,19,107,-4,-26,-2,4,-1
-8,-4,-37,33,41,10,-5,-7
3,0,-4,-9,-1,-6,-2,-1
-2,-5,-42,1,-3,-5,-3,1
2,3,-19,-31,2,2,1,-3
-5,-10,-24,-20,-28,-10,-6,-5
6,4,24,-2,-6,-3,-4,1
-5,-6,-33,-12,-4,2,2,2
-5,-5,18,8,-21,-23,-26,-8
3,8,-43,32,35,24,28,7
-2,-3,22,-15,4,-3,-3,-1
-4,-12,-47,-18,-21,-9,-4,-6
-1,-3,9,-2,3,0,2,-1
-1,0,-4,18,-19,-14,-11,-4
0,-4,3,-14,-2,-2,1,1
2,5,44,6,-3,1,-3,-1
-4,-7,-34,32,65,17,6,0
0,2,3,-8,-7,-9,-8,-2
3,5,4,10,-16,-2,1,-1
-1,0,-20,-2,-13,-7,-7,2
-4,-6,53,-8,-4,6,6,-2
0,5,8,11,-12,-3,-3,-2
-2,-11,-75,-19,-7,-5,-2,-2
0,12,36,-5,-2,0,-1,-1
-2,2,28,14,4,4,6,-1
-2,-9,-10,-8,-2,-4,-4,-1
1,10,50,5,-10,-8,-2,-1
-2,-9,-30,7,1,3,-2,-1
-2,-11,-53,-29,-11,4,4,-3
-4,-4,1,-1,-10,-12,-5,-4
2,8,-8,2,5,6,5,2
-5,-15,-13,2,10,2,-2,-4
-1,0,31,7,2,-5,-9,-3
1,1,9,-21,-8,5,8,2
4,11,-39,-39,-22,2,3,-1
-7,-20,-41,39,39,4,-2,-3
-4,-8,-23,-6,-8,-2,0,-2
-1,2,-9,-6,-17,-9,-8,-1
-1,4,47,22,2,1,0,-1
3,6,7,-35,-3,-2,-1,2
0,3,9,22,11,2,3,0
1,-1,-14,-10,2,-3,-5,-1
-1,-4,-1,6,-5,1,1,-1
-2,-2,-3,-4,-14,-6,-3,-2
1,-1,-12,-4,-1,-2,1,-1
0,-2,26,2,-4,0,-3,0
0,0,22,8,8,1,0,0
-4,-12,-47,2,-5,-16,-5,-3
3,12,28,0,0,16,9,6
-5,-19,-42,-14,-4,-1,-2,-3
-2,3,-9,-2,2,-1,-3,-1
1,6,36,12,-4,-5,-2,-3
7,21,58,17,5,-2,-2,1
-13,-30,-76,-26,-4,-5,-6,-5
-1,-9,17,12,0,-2,1,-1
-2,4,-21,-40,-32,-6,-5,-2
0,-1,-4,21,6,2,0,-2
3,12,34,31,33,9,3,3
-1,-4,-23,-42,-4,-4,0,-2
1,4,29,6,-4,0,-2,0
-5,-14,-39,-49,-29,-4,0,-5
4,10,22,38,21,-1,0,1
0,3,5,15,3,-3,-4,0
0,1,4,9,-3,9,6,1
-3,-7,-27,-17,-5,-4,-1,-2
1,6,13,-7,-10,-4,-4,-4
0,2,42,28,16,2,2,1
-3,-17,-68,-30,2,0,0,0
-7,-15,0,3,-4,-2,-2,-5
1,13,19,-12,-8,0,-1,-1
2,5,22,14,4,0,-1,-1
-8,-14,-44,-8,-4,-3,-2,-4
-6,-3,-21,-5,3,0,-2,0
-3,-8,-21,-6,-4,-2,-1,-2
-1,4,3,0,-3,-2,-2,-2
1,4,31,18,7,3,3,1
0,-3,-2,-11,-3,-8,-5,-1
-1,6,16,-1,2,5,2,1
-3,-11,-28,-19,-11,-3,-1,-2
3,7,35,14,1,1,0,0
2,8,44,6,6,-1,1,-1
-3,-13,-44,9,-12,-7,-2,-1
-2,-5,-12,7,22,5,1,1
-3,2,22,-9,-2,0,-2,-2
-1,2,-8,0,-2,1,-2,-1
-1,5,19,-4,-4,-1,-1,-1
0,5,-3,-1,-7,-1,-2,-2
0,-4,1,5,1,-5,-4,-2
-1,-8,-18,-18,-7,-3,-3,0
-3,-1,21,19,-1,-2,-1,-2
-3,-7,-24,-10,-10,-4,-2,-1
5,13,38,23,24,7,1,0
0,-7,-24,1,0,-2,-2,-1
1,5,6,-9,-1,-1,-2,-1
0,7,-20,-9,-3,2,0,0
