6,1,2,-11,-11,-3,-4,-4
5,-4,-6,-19,-13,-5,-6,-3
-4,2,-2,2,4,1,4,2
-6,-1,-14,-7,4,-5,5,2
-3,3,11,9,13,-2,4,3
-1,-7,-10,-12,5,2,-1,-2
2,3,-23,-2,0,-7,-11,-1
-3,-5,-20,-6,-1,-10,-13,-1
-6,-1,5,10,2,-1,-2,-2
1,5,5,-21,-6,0,8,-3
7,0,-3,1,-3,7,5,-1
3,3,-7,-1,-3,6,7,0
2,0,8,1,-1,-1,1,2
-6,-1,7,10,11,-3,-4,2
-6,-6,7,-9,-1,-3,-7,2
-6,-4,2,1,-1,3,-2,-1
-5,1,-8,-4,-9,-8,3,-4
0,-4,1,4,3,2,-5,-6
4,-5,-4,-3,-1,0,-5,-7
-3,-6,1,-6,-3,3,-2,-6
-4,-5,8,0,-4,0,1,-2
-3,-2,-8,-11,-7,-1,-4,1
-2,3,7,3,0,0,-4,2
0,1,-13,4,1,-2,2,-3
0,8,5,-15,-16,-6,2,-1
-4,-10,-21,-1,-13,-5,-1,-3
6,0,16,15,12,5,6,1
6,1,-6,-5,3,-7,4,2
4,3,2,-9,1,-5,0,-1
1,0,1,13,1,-2,-6,2
-9,-4,0,8,-9,-1,-2,3
-2,-3,23,0,0,6,-3,2
2,-6,-38,-10,-8,5,-3,0
0,8,4,-2,-2,5,0,3
0,3,4,-7,-3,3,-2,1
1,2,-7,-3,14,-1,-8,0
0,-2,34,6,15,-4,-5,0
-1,-8,11,0,7,-13,-1,0
0,-3,-2,-2,-3,-11,5,2
-3,2,-5,-8,-15,-2,3,-8
-1,-4,-10,10,6,10,0,-10
1,-1,-9,5,-6,6,-6,-6
1,1,10,-4,-4,-2,-5,-3
1,3,7,3,-5,-9,3,3
-3,0,-9,-5,-4,-4,5,0
1,4,-3,-12,-13,-4,5,0
-9,-6,-4,5,22,6,0,0
-8,-4,0,-7,10,2,-6,0
-8,-2,-8,7,3,1,-7,4
-5,-5,-2,10,5,-1,0,-2
10,8,-10,2,-8,-7,-2,-4
8,-3,-15,-6,-7,0,-3,-4
2,-2,-9,-12,-8,-1,-4,-3
-1,2,2,-3,-4,0,-4,0
-2,-3,2,-3,1,2,0,-1
-4,3,-14,-5,-2,0,2,1
3,-4,-6,-4,-8,-2,3,3
1,1,5,-10,-17,-2,4,-2
-3,-2,-6,6,-5,0,-1,-2
3,1,10,4,10,3,0,-2
0,-1,10,3,3,-3,-8,-3
-1,-5,-6,0,9,0,-4,1
0,0,4,-11,-12,-1,1,5
16,3,-8,2,1,2,1,4
-22,5,15,-26,-10,-5,6,-2
-5,-12,-14,37,23,-5,2,-4
-8,-8,-20,-10,6,-7,2,-6
0,0,-1,1,-6,-6,-1,4
13,3,3,0,0,4,-7,7
1,6,12,-20,-4,6,-6,4
-1,-6,13,3,-5,-1,-4,-6
-2,-5,-2,-2,6,-4,1,-13
0,-5,3,8,4,-2,1,-6
-7,4,-1,8,8,6,3,-1
1,3,-11,8,1,5,-7,2
-3,0,-1,3,-7,3,-5,0
3,-4,7,2,-10,-4,-3,-1
-3,-2,10,-13,-6,-3,1,3
-9,6,7,18,28,-3,3,2
-5,3,-1,-12,-12,-7,3,0
-1,-3,-33,1,-1,-4,6,3
0,9,14,2,-8,-4,-1,0
-4,2,-12,-19,-14,-1,-5,-4
-5,-11,8,-2,2,0,-7,-4
5,-3,7,1,4,-1,0,-5
7,10,6,1,1,2,7,-2
-6,-22,-7,1,-4,1,0,-1
-2,-8,7,-1,-4,-1,-3,-7
4,1,-1,13,-1,2,-2,-2
-1,-2,-11,-1,-7,-2,0,6
8,6,16,-7,-6,-1,-3,4
-14,-18,-27,-20,-13,0,0,-1
-9,0,-14,-8,11,2,1,-10
0,9,-8,28,8,-4,-5,-9
-8,18,6,8,2,-1,2,0
2,2,8,6,-1,-9,-7,6
-7,-6,-6,-6,-2,-3,-3,2
2,-10,-5,-14,-5,-2,2,1
4,2,0,-11,-2,-4,9,1
6,12,23,2,-7,6,7,-2
3,-4,-21,3,-5,5,0,0
-4,-12,3,-13,-5,-1,-9,-5
3,-8,5,10,-2,-2,-7,-6
-2,-5,8,0,12,1,-6,3
2,-5,-12,22,28,2,-6,4
-2,16,4,-3,4,-7,1,4
-2,4,-9,-13,-1,-8,1,1
-1,11,10,-13,-9,-12,3,-4
-6,-4,8,9,-4,2,0,-1
10,-6,-7,-8,-7,3,0,2
-4,-7,8,2,-3,5,1,-1
3,-10,-10,13,15,3,-2,-2
-5,2,4,-6,-22,-9,-5,-3
-5,8,12,-3,8,0,-8,-1
-1,8,-11,1,12,2,4,1
-10,-13,-12,-4,0,2,0,-1
15,-7,-15,-20,-17,1,3,-1
4,-3,-11,-9,-11,2,2,-7
-11,-5,-1,2,-7,0,-3,-4
-11,-2,-5,4,3,-2,1,-4
-18,4,5,9,12,-4,3,2
22,-9,-6,-3,0,-10,2,9
-14,-10,-13,-6,-11,-10,-6,-12
-17,6,12,7,-8,-4,-5,-3
16,10,23,-16,-12,3,-6,2
-12,0,-13,8,11,11,-5,-4
6,3,10,13,-16,1,-4,0
7,-15,-13,6,-1,-2,2,-1
4,11,10,-12,-12,-2,3,-8
-3,7,-5,16,23,5,4,-1
-1,-8,1,-21,0,2,1,4
1,2,-7,3,3,-3,-3,3
-7,-4,-17,-12,-9,-16,-2,0
-5,-15,5,-9,-7,-8,-2,-6
1,1,10,0,7,6,-1,-3
8,3,1,6,2,7,3,1
-7,6,3,-4,4,-3,4,1
14,-11,-1,-1,-14,-1,-3,12
2,-7,5,-5,-3,-2,-8,2
9,3,-6,-8,-7,-3,-4,-2
-7,3,-9,5,0,1,-6,-7
-16,5,-4,25,5,-5,2,-8
6,2,-13,-2,19,1,4,0
-24,-4,8,-16,-3,-10,7,-1
1,-3,10,5,5,2,2,-4
-15,-12,-4,-23,-16,0,-4,1
16,0,-2,-5,-15,1,-4,0
24,16,5,21,4,2,-10,5
-1,-1,-1,-3,-2,1,2,5
0,-8,9,5,-13,-4,-8,-8
-10,1,-32,-15,-3,-2,-11,-3
12,-2,4,5,-5,3,5,1
-46,4,2,17,4,1,-2,-20
61,9,25,25,9,9,7,21
-67,-35,20,-19,5,-5,6,-12
19,-10,-4,-29,-5,-7,1,3
17,12,-19,-6,11,-6,0,17
-32,4,-3,-14,1,-5,-4,-21
27,-15,-8,-1,0,1,5,5
-10,12,-38,-5,-15,-5,6,-7
3,-3,35,10,-14,5,2,-12
39,28,-5,12,2,-1,6,-1
-35,7,1,-1,-13,1,9,20
-16,12,-5,18,24,11,-16,-11
19,-36,1,0,5,3,-14,16
-22,0,36,24,-5,2,-11,-3
97,29,2,8,-2,6,-4,5
-83,-61,-19,-26,-11,-10,12,-9
5,3,-6,-20,-1,-12,2,6
-35,7,-3,-13,7,-11,3,1
60,-2,5,-4,17,-1,3,-10
-14,50,-19,3,-5,0,-10,-3
9,-83,-5,11,7,4,-9,-20
-23,13,-13,-56,-61,-18,-5,6
-32,-6,-24,32,24,10,9,7
37,12,28,-23,-41,-9,-13,2
-87,-28,-13,4,11,1,4,-13
35,14,-28,45,53,11,4,16
-57,52,-3,-35,-65,-19,1,-20
20,-68,26,27,73,25,20,3
11,65,-13,-21,-72,-22,-7,2
15,-35,-16,27,9,4,5,1
-18,-31,-42,-43,-1,-15,-23,-9
15,47,9,27,-5,1,11,8
51,18,28,-16,-27,-17,-15,-8
-53,-9,-20,-58,-56,-14,0,-19
23,-8,23,14,8,4,0,8
28,23,1,34,99,31,5,23
-10,3,-6,0,-10,-3,-2,3
-13,-13,-21,28,43,14,4,-10
54,0,23,-14,-11,-5,-5,4
-117,13,20,-20,-57,-7,-3,-19
69,-38,-81,-10,26,14,18,39
17,49,59,6,-12,-3,-3,-17
-64,-45,-7,-2,-7,-13,-16,-14
65,-5,-51,-24,-20,-22,-11,7
-11,27,44,24,13,-1,0,12
-51,-68,-47,-18,9,-2,-4,-8
9,69,124,37,22,8,0,6
14,-14,-76,-19,-21,-5,-12,-22
-23,-1,27,-48,-25,2,12,4
-20,40,43,8,-16,-3,4,-5
96,4,-45,55,2,-8,-24,1
-30,-8,51,9,70,36,23,11
21,20,-37,-19,34,0,9,6
8,-14,59,30,45,15,7,-5
-54,0,-10,-18,-21,-10,-10,-6
21,12,9,-12,-25,-2,1,14
-2,-15,-20,24,37,10,-18,-18
10,-41,-39,-19,-23,-6,-5,10
-1,0,-20,0,-9,0,11,-16
-13,-19,55,20,-10,-4,5,13
-29,-18,-27,5,-5,9,-2,-9
37,20,-60,-14,-16,-9,-7,4
23,50,49,-3,5,12,12,8
-52,-28,-23,-39,-26,-5,-7,-21
-17,58,51,63,3,-4,-8,-4
16,24,-26,-32,-25,4,-7,7
17,33,75,23,6,0,17,21
58,-1,-12,-22,-8,0,5,13
13,24,41,58,-29,-5,3,-2
-70,15,34,-20,69,19,5,-1
15,-38,-29,4,23,4,8,13
-1,-14,-101,-3,-28,-17,-4,-2
36,40,92,-15,-4,-5,4,-1
-11,12,-34,12,-13,-11,-6,-32
-30,-90,-27,-64,-47,-11,-5,0
40,-24,-34,69,70,14,-2,-12
-31,-10,-8,-20,29,8,-4,-6
-3,8,29,20,23,17,-4,3
-30,-7,-45,-6,-14,5,16,7
30,20,31,-51,-69,-27,-4,24
-6,3,32,19,9,0,-6,10
-22,-42,-44,-15,-8,-12,-16,4
-34,-41,-37,1,26,8,0,-16
-7,-6,-13,20,10,1,2,-9
-40,16,-61,-13,22,8,18,-12
63,15,44,-39,-85,-19,0,21
4,26,10,52,76,28,2,-18
-49,-42,-47,-34,-4,-12,-19,-2
41,-48,-48,-50,-32,-4,-7,-20
65,15,27,33,5,-4,12,1
-28,-63,27,-20,2,-15,-10,17
28,6,13,7,6,9,-2,1
-49,-51,-58,19,4,16,6,-16
9,-20,-5,-26,-22,4,-4,-10
33,-24,-57,-5,-18,-7,30,8
-23,84,101,14,2,-9,-18,-16
1,35,2,16,7,-6,-5,-17
13,-111,-71,21,25,13,3,9
-47,49,96,22,-12,-6,-4,-11
9,6,10,-37,-17,-6,-7,-17
-4,20,-88,18,-14,-9,6,12
-6,84,113,19,30,3,3,6
17,10,-111,-35,-7,-15,-16,-4
-30,41,100,-18,-37,-3,1,-13
12,14,33,80,79,17,-7,-8
84,-78,-128,-55,-12,-1,3,-5
-1,-4,7,8,-19,-6,-16,26
-24,44,52,-36,-26,-3,12,-20
17,51,64,37,-10,-12,-13,-14
9,-25,-83,10,31,-1,9,59
-64,23,11,-17,-1,-2,-24,-42
22,34,78,24,5,10,-31,-2
7,-80,-26,-49,-34,-9,12,20
-9,81,9,1,-23,-5,10,11
39,25,-92,-9,8,12,11,6
18,-63,-77,38,16,1,-10,-2
-26,-16,41,-64,-28,-28,-21,7
11,-16,-11,-53,-35,-10,18,-15
-61,-10,-107,-30,-33,-12,8,-5
20,-33,-56,0,3,7,-1,-11
11,38,97,8,16,1,-14,0
-2,-33,58,44,11,-2,-8,-8
30,-58,1,-11,-20,7,19,8
-29,-59,-2,-9,-18,-14,-15,12
-55,-3,-56,-19,14,13,2,-3
-49,38,22,31,2,-24,-28,-2
-2,3,85,-6,25,13,-4,-21
-39,9,-48,14,2,4,32,-13
93,-33,-111,-101,-66,-8,0,19
-100,-5,29,70,26,-8,-1,-15
46,59,102,47,34,6,-31,-11
15,-1,19,47,19,3,38,37
24,63,42,-35,4,0,-8,-3
-26,-13,-87,-16,-22,1,-18,-38
-97,26,71,-5,-9,-20,3,-1
43,-97,-26,-15,11,10,3,-1
28,37,26,36,-11,-8,-4,6
-12,43,32,-28,36,8,-5,-17
47,20,81,39,18,9,1,-9
50,55,-89,-16,-27,-8,-7,11
-28,-9,94,57,20,25,11,-4
67,-1,15,-96,-57,-10,-3,7
-32,-71,-103,54,33,9,3,-7
-18,-39,4,-5,-16,-9,5,8
0,13,61,42,8,-7,-1,-1
44,109,125,23,-19,-1,-3,13
10,-25,-88,-76,-37,-24,-2,7
-20,12,8,-24,-7,-14,-11,-2
-2,-20,4,27,27,2,9,-34
-14,-23,-9,3,9,4,0,39
-16,26,53,4,-12,1,7,26
-47,-6,-59,-38,3,4,17,-7
-24,-15,8,-30,-6,-14,-13,-8
-21,27,29,-7,-6,-4,-15,-34
30,-94,-6,0,-1,7,5,31
-77,3,61,-19,-29,-22,-22,-9
31,-15,-2,54,53,10,6,14
71,8,-104,-40,9,8,6,-25
-53,54,73,64,-28,1,13,3
43,-6,47,25,27,3,-7,6
-7,-2,-69,-48,-7,19,10,7
-12,-53,62,9,13,1,11,9
22,90,-12,29,17,-3,-1,-18
-6,-54,-14,-41,-11,2,-7,-17
-26,-20,-15,7,-20,-10,-11,32
16,36,-36,-4,-11,-2,-10,-13
-1,-99,40,-1,-11,10,0,8
-30,35,0,23,15,-1,-9,-14
0,-28,-72,-55,-20,-10,-9,-32
-33,-10,64,8,-3,8,11,3
13,-79,-23,-1,-7,1,1,-6
11,-6,-49,55,25,4,4,-7
61,-39,-114,-52,-3,-8,0,15
-54,-92,29,14,0,-6,-9,-39
24,65,31,-16,-18,-20,-14,51
59,45,35,36,-4,5,2,20
-20,21,79,16,8,3,0,-5
-42,-7,-26,-5,11,-3,-9,-5
52,48,-84,-20,10,6,-4,-20
-11,-34,-54,-23,-6,3,13,5
30,63,66,30,-2,9,6,1
-43,-83,-18,5,7,14,5,16
-14,33,32,-21,-17,0,4,-43
57,17,-14,7,9,2,10,50
-41,-23,8,-13,-9,-11,-7,-17
-10,6,-71,2,-9,-3,1,8
-10,11,-9,4,8,1,0,-16
32,0,67,2,-18,-9,-16,-28
-31,-8,-25,-1,-6,4,5,14
20,26,24,14,9,-38,-34,-7
-8,-28,-61,-25,-3,-30,-33,-16
11,47,81,19,29,68,62,12
-22,-17,-24,-4,-3,47,44,8
-16,-2,-14,-6,-3,5,3,1
24,20,5,-4,-5,-18,-11,3
-28,12,6,-2,0,-22,-28,-14
3,2,8,2,-3,-18,-10,2
33,7,-16,-1,-1,12,13,-2
-4,6,52,-10,4,-10,-9,2
-4,-24,-26,-2,-5,-15,-14,-1
-21,10,-2,-22,-12,-10,-14,-9
2,-12,-9,5,-7,-9,-9,8
-9,6,11,13,6,14,4,2
-34,3,-15,5,2,1,-12,-31
35,-5,20,3,-2,-12,-9,13
1,6,-16,-3,-1,5,10,1
6,-4,-6,-14,0,16,14,0
-18,4,3,20,2,0,-1,-3
-14,-12,-15,-28,-4,-17,-13,-8
9,28,46,4,4,7,8,13
14,2,-12,19,1,11,13,3
1,-2,-72,-39,-13,-19,-10,-3
-9,-10,14,10,-2,-7,-4,-2
2,7,20,45,1,-10,-5,-5
-12,2,4,-19,-2,-1,-1,-3
-10,-3,25,114,26,2,-2,5
0,1,-9,-88,-17,-14,-8,3
0,1,14,3,-9,4,-3,-1
9,-2,-56,10,-3,11,4,-3
-2,9,26,-43,1,-6,-8,-3
-5,-9,-20,9,-6,-10,0,-5
-4,15,23,-24,7,-7,-1,1
-18,-14,-42,-59,-19,-19,-10,-1
-1,2,-4,-22,-12,0,5,6
-9,-4,-66,10,3,7,9,-11
-6,-10,84,46,-1,1,-3,-14
7,5,16,52,6,6,-1,0
5,3,37,2,4,-10,4,-15
9,8,52,94,9,6,0,19
1,-4,-112,-71,-11,-1,-1,7
-1,-4,11,31,12,-2,-13,-4
20,3,45,-38,-13,-8,-21,8
-23,-1,86,87,12,26,20,11
-6,-8,-2,-13,8,4,-4,-3
-5,-6,-11,-13,0,-2,6,0
-4,5,25,-17,-8,-22,-14,-1
8,4,-6,5,11,-7,-10,-12
4,-4,-38,14,-10,8,8,6
14,23,-17,-2,7,-2,1,0
-15,-31,82,31,-8,-13,2,-16
3,-11,-49,-56,-20,-6,7,-2
-5,14,75,51,3,1,7,0
-2,3,72,31,2,3,-3,-4
-1,8,-45,-1,13,15,-4,9
-13,-15,0,-57,-8,2,-12,-9
-6,10,24,33,8,4,-5,6
-11,-15,17,22,-16,4,-3,-3
7,10,10,5,0,6,8,3
9,-5,-67,-52,-8,-9,3,-5
1,-14,-88,-82,-3,0,4,4
-3,-2,-19,-18,0,-3,-5,-5
-7,-2,-9,46,4,8,11,9
9,17,44,57,14,-10,-11,1
8,18,43,10,5,-5,-6,-2
-4,-7,-53,-57,-13,-6,3,-2
-5,-2,-31,-13,-14,-5,-5,-3
