11,-23,-3,-11,-9,-2,-7,-8
-4,-6,-2,-1,-6,-3,5,-2
3,-9,-4,-2,-18,-1,0,-4
-9,5,-1,8,1,2,1,-2
-7,20,24,-13,-14,2,4,2
8,-7,-10,5,3,-1,-2,2
7,-6,-15,-10,1,0,-2,2
-19,-10,7,12,-2,-2,-6,-8
10,8,1,0,5,-2,-9,-6
19,18,8,5,16,3,2,3
-16,-3,12,-7,-10,-12,0,4
10,-15,-18,-20,-24,-13,-6,-3
-11,6,6,-4,1,-7,-5,-3
-15,1,3,2,7,-3,-5,-6
6,7,9,5,11,2,-5,-5
0,0,-27,-8,4,4,6,6
-4,-12,-3,8,-6,5,4,2
1,-6,-6,6,-8,6,-1,-1
-7,1,-2,7,2,6,2,2
0,17,27,-2,-13,1,6,3
18,-5,-18,3,-23,-5,10,8
-12,8,-25,-12,-7,-7,-1,1
1,-19,13,9,29,-3,-1,-7
-1,-6,-17,-15,7,2,-10,-12
-6,-6,-1,25,17,-4,-2,-2
-5,-3,9,-12,-10,-6,1,7
-9,9,-5,-5,-24,-3,-4,-2
21,14,19,-18,-2,3,0,1
-5,7,-10,-19,2,2,-6,-3
2,-22,2,11,1,0,-1,-2
-2,5,13,-4,2,-1,0,-2
3,-16,-4,16,0,-2,0,1
-15,0,-18,-13,-3,4,-5,-9
-2,-5,10,9,0,1,5,-5
-15,0,-8,8,2,-1,4,5
25,7,8,-10,-4,-3,-1,12
4,-4,-16,-8,4,-3,-3,1
-7,-7,16,-8,3,-15,-9,-9
-5,1,3,-1,3,-6,3,-11
6,-4,-23,-12,-17,-18,5,8
-1,0,6,1,0,5,1,1
10,8,-11,-12,3,12,-5,-5
-16,-6,7,12,-2,12,1,-2
-28,-10,10,15,-9,0,-8,-5
-13,-12,8,-3,-25,-4,-4,-9
-4,-6,-9,-6,4,4,-3,-6
36,20,16,27,12,-6,-2,3
8,-3,-19,-27,2,-1,1,-1
5,-1,18,28,3,-8,0,-1
-31,-11,15,-5,-2,-6,-3,-4
-19,-16,-25,-27,-9,3,-2,-5
17,21,0,-5,-1,2,6,-2
16,-2,7,5,-8,-6,2,21
-3,10,-26,-4,-4,-2,0,0
-22,-7,37,-13,-9,0,-3,1
10,-8,4,43,7,1,-5,-8
2,-13,-11,-19,40,11,3,0
8,4,-19,1,3,-1,4,14
18,5,-27,-34,-10,-6,-3,8
36,28,18,11,10,3,-6,4
-21,-11,34,14,-8,-3,-2,-7
-7,-3,-20,-6,13,-5,-1,-5
-33,13,-12,20,-7,-2,2,-12
-3,10,-1,-70,-9,7,10,8
22,-56,0,43,-2,7,6,-3
0,57,33,-21,-16,2,-1,-12
33,20,-10,7,-20,-9,-3,-8
-25,-40,1,-8,5,3,14,-7
-12,-35,-51,-5,-47,-14,-4,12
-15,1,-8,35,66,16,0,9
4,-15,37,21,6,2,-14,-3
-7,10,-6,-10,-8,0,-5,14
-14,27,-22,-31,-5,-5,-22,-12
75,6,4,17,-52,-9,-5,-5
-50,-9,-22,5,74,23,3,6
26,-42,-22,-48,-29,-9,13,0
-12,54,35,50,82,9,21,14
-27,-67,37,31,-11,-9,-5,-18
85,32,6,-29,-53,-22,-8,13
-38,-14,-38,23,4,0,-15,-24
-7,43,1,-35,-5,5,1,12
-11,1,0,48,-25,-10,1,6
-8,-1,13,-27,23,11,3,-10
-15,-39,-3,37,1,-6,-15,-16
30,-31,-16,-81,-9,7,24,42
-44,-18,-23,-100,-67,-15,-24,-34
-29,-20,1,77,8,0,7,10
26,49,10,82,57,-9,-4,-32
-45,-36,60,34,30,8,3,7
75,8,-44,-21,43,12,0,10
-13,28,16,-34,-21,-1,-4,-4
17,28,12,25,-36,1,7,10
32,36,27,-6,-26,-10,-16,-45
-55,-108,-19,-28,-17,10,20,42
77,58,-31,14,-20,-10,28,13
-83,-40,26,6,-2,7,-10,15
59,-16,5,55,-35,-18,-9,-12
-3,26,-15,-12,30,2,-14,-29
1,-16,5,-36,29,11,9,4
5,-9,3,-53,-49,-9,-10,7
12,-11,39,1,-5,2,-12,-11
-23,56,-35,2,-59,-13,-16,-39
-2,13,0,3,69,23,19,54
-50,4,-30,15,40,7,18,-4
0,110,-69,45,-23,-16,-16,10
25,5,16,-45,-38,3,-6,-14
14,37,16,71,-61,-16,6,48
45,-2,-40,-82,7,-5,-10,11
-37,-52,58,19,59,-1,-3,-16
-42,11,1,22,-11,-6,4,-39
80,-5,-26,6,-22,-11,11,34
-29,-11,7,-51,24,4,-13,-1
-57,49,33,-28,-41,-1,-11,-68
-21,66,67,7,42,-1,31,65
4,27,-57,75,-32,-6,-37,-84
60,-70,36,-13,73,34,43,67
0,46,-31,-25,-74,-11,-33,-32
81,24,79,102,110,21,-20,0
-128,-128,39,-81,-10,4,4,-30
58,79,-75,-19,-56,-13,2,22
2,-128,39,56,17,32,27,15
48,83,-68,-40,-91,-19,9,8
77,-82,-34,-15,64,15,0,16
-113,-74,94,-34,-36,-15,-40,-44
-41,1,5,7,71,2,-15,3
-69,-32,-70,-25,-49,-30,-26,-17
78,65,104,5,-86,-25,-25,-69
-113,-62,-33,-43,96,64,73,61
113,94,-55,-99,-85,-20,18,63
-99,-16,-18,87,0,3,2,0
-11,66,-128,-128,-8,-12,-10,-4
-21,-37,29,127,-26,-24,-50,-105
49,92,22,32,8,23,62,58
-7,-128,33,-65,42,19,20,48
-69,-39,-17,-54,61,18,-1,0
127,127,115,56,-31,-29,-16,-20
-128,-109,-93,-128,-50,16,4,-18
25,104,56,92,77,32,43,25
44,-15,92,-2,-110,-28,-7,27
86,88,-15,21,57,2,-16,-13
-19,-128,-28,-95,-28,-6,-6,-88
-48,-51,127,105,71,35,30,42
-128,40,-78,-84,-13,-5,-40,-5
-33,-52,10,28,-39,12,23,5
-27,66,28,3,-25,-29,-45,-15
23,26,13,-128,11,-17,-7,40
99,0,-33,-76,-18,-4,22,-16
-124,87,73,82,-15,-13,-56,-102
104,-14,-55,64,82,23,66,99
-86,45,-5,-36,-52,-14,-23,-36
-97,-35,-6,47,72,27,-1,-36
-36,-98,-97,-123,-64,-46,-38,-14
-68,87,-87,2,-48,-27,-31,-60
127,49,-11,-66,-69,-22,-40,-69
110,48,48,102,113,74,114,126
-76,-89,-22,-44,18,6,-26,-78
-48,66,127,23,19,-2,7,-12
111,-26,-128,-29,-75,-34,-28,-3
-128,40,-40,28,-68,-41,-45,-52
127,-3,-14,-80,-48,-38,21,91
-97,8,15,55,19,9,10,72
-22,-11,-40,-51,-44,-23,-45,-59
-53,31,-14,-42,-104,-8,-11,-39
99,78,-46,2,78,29,52,106
35,69,4,47,-1,-11,-15,-73
-128,-9,67,-30,3,11,-8,-22
90,35,-52,62,-24,6,-1,-62
-24,-51,96,11,-81,-21,-34,33
-22,-67,16,36,49,14,40,34
-21,-32,10,-8,-1,41,39,26
-90,-10,13,-35,31,2,-56,-114
-9,102,-21,82,-28,-9,22,17
25,30,-44,-8,-38,-22,5,51
15,42,-55,-85,14,-19,-83,-67
-34,-128,102,75,53,64,66,6
108,86,28,47,-19,2,24,51
110,-64,65,35,9,1,-4,57
9,124,-83,-21,55,-5,8,-34
-55,-88,-60,-85,-80,-46,-6,25
60,2,15,13,35,31,5,-55
85,71,0,13,-59,-22,-30,-25
-70,78,127,101,-50,11,6,13
35,-32,24,62,67,-7,-4,57
-46,-7,-60,-83,-25,-2,-14,-45
-60,21,43,-128,-58,-8,-46,-101
-26,-128,-32,59,-27,-5,80,104
-68,125,96,68,15,-10,-33,-45
22,10,18,34,-8,5,-3,-25
63,41,-7,-69,-36,16,-5,-48
43,-31,7,-39,-21,-35,-11,35
12,-51,-72,92,86,38,1,-2
-127,-78,57,-44,-22,-5,-33,-72
75,65,18,-14,-74,-11,35,80
0,9,-115,-1,105,41,7,-13
26,64,39,-46,-10,-39,-12,22
-125,-90,19,18,-3,-26,-9,-4
-36,-27,-110,-35,20,-2,5,8
66,71,42,0,-36,-21,-56,-82
-42,-82,-49,73,-3,-6,-3,7
105,52,-18,-83,-23,38,105,98
-21,-20,-38,81,96,10,-52,-67
-98,-115,16,-53,-55,-4,-4,-15
47,81,-13,-22,-51,-24,21,94
-11,-23,5,-82,-29,11,1,-67
-75,-40,32,49,78,14,31,68
85,17,65,7,38,1,-10,7
72,-2,19,-71,-35,-45,-47,-38
-81,5,-69,-16,-8,-22,22,15
-27,-63,55,-63,-17,24,-38,-72
78,-67,9,-30,-52,-14,36,72
-78,40,93,48,29,27,13,9
94,-11,28,-15,47,-35,-53,16
-66,-35,51,28,-6,-30,-25,-46
-11,-15,-37,52,-5,-39,13,19
18,-50,-92,-98,-66,-1,10,-12
-23,51,-38,33,2,106,42,7
-20,-21,-34,5,15,15,9,-18
-7,26,60,10,9,-2,9,18
10,36,-2,-30,14,-35,-28,-27
-16,-3,-21,34,11,-17,-35,-13
64,23,13,-1,3,-16,12,43
-22,12,-25,6,7,-1,-5,-49
-50,-39,18,-20,-18,8,9,-15
104,42,40,72,-9,6,14,42
-34,-34,-29,-17,-20,-58,-32,-9
17,-46,14,9,17,-4,-17,-8
5,52,32,12,28,112,62,17
-53,3,4,-9,-15,-13,15,-23
8,27,-41,-26,14,51,64,8
0,3,21,29,9,-9,-7,3
30,11,-4,-30,-22,-39,-35,-7
-43,-40,-19,7,-4,-30,-44,-22
3,-9,46,13,-13,1,-3,-5
-30,-30,-60,-5,-24,4,5,-21
11,-33,42,-13,5,-16,-16,2
-13,30,-14,-12,2,-18,3,1
-11,-10,44,28,1,-6,-14,-5
6,15,-1,-12,-15,16,20,9
16,-7,-52,2,1,-16,-4,-3
-50,-19,-3,-5,-6,-9,-19,-22
30,-2,-17,-34,-16,5,12,14
18,19,2,21,11,-19,-55,-7
21,-8,7,-7,-6,50,56,12
-5,6,0,16,25,19,20,8
1,-17,-59,-11,6,-10,-15,-4
-9,25,63,7,21,0,12,1
5,-17,-29,-22,2,-48,-34,-3
-8,-13,19,31,-2,-6,-1,-4
7,19,-7,-9,-2,17,8,-6
-5,-7,8,22,6,-11,-10,-7
10,21,52,-9,0,-11,-10,2
-11,-11,-78,-38,7,15,5,-3
-16,-11,9,-1,-18,-51,-13,-4
-13,6,-15,-8,4,14,12,-6
7,2,39,20,-9,23,-8,-2
-1,7,-8,42,9,0,-4,-1
4,-4,50,-29,-4,4,-15,-7
3,-3,21,-18,11,44,27,14
0,-12,-4,29,-5,2,11,1
-1,-7,28,-26,-1,18,9,1
-11,4,23,9,15,20,5,-9
-7,-13,-101,-13,1,-11,-2,22
15,8,100,32,7,12,24,-42
-8,-20,-49,-57,-13,-29,-17,-3
4,26,85,82,7,-4,-6,7
-12,5,-48,-82,-8,-4,-8,-11
-11,-6,-5,47,2,-34,-31,4
7,-1,-23,-42,-22,-13,4,-3
5,-8,13,6,-2,16,13,7
16,11,-14,41,7,9,-2,4
14,1,25,5,-1,-9,18,12
-6,3,43,9,5,-2,0,-12
-11,-14,-54,-29,-4,-18,-22,1
-9,5,14,20,-3,18,-3,-10
-1,-7,-55,-73,0,4,-11,12
-3,15,112,30,-3,1,-9,0
4,-10,16,-21,-12,13,12,-1
-2,1,-19,1,-7,0,12,-4
7,12,79,60,3,7,-11,0
0,5,-59,-70,1,-19,-54,-10
-22,-10,25,20,6,90,85,4
0,3,115,62,0,-4,14,-9
-1,4,10,-32,-2,-18,-2,4
2,8,-50,20,0,-7,10,16
-5,-16,-55,8,5,-30,-19,-15
-6,-10,63,-41,2,-14,4,23
-7,-5,14,46,16,31,13,-14
-7,-16,24,30,0,-22,-29,-3
14,8,-60,-31,4,13,-9,-12
14,12,54,18,3,22,14,10
0,-2,-54,-20,-12,-31,-19,2
-4,8,107,18,-4,16,22,4
10,-1,-9,-47,-6,-13,-9,10
-3,2,51,13,-15,-20,-40,-24
-11,-8,40,21,-4,34,24,8
-1,-1,-70,4,7,16,13,6
-10,-12,43,2,5,-19,-11,-1
-3,12,52,6,1,-6,-19,-8
5,-1,-65,-24,-8,-19,-11,-13
2,3,34,18,-6,-4,11,12
0,-16,-48,-26,7,-7,-11,4
-3,-9,-34,12,6,6,13,-9
0,-15,9,-18,-9,-15,-14,4
1,3,-20,-4,10,8,0,-12
1,22,107,102,4,-13,-12,-10
-5,-8,-91,-53,-13,8,17,-3
3,1,-7,-3,-7,8,-4,2
1,2,-65,6,-1,-5,-10,1
2,13,27,-10,-4,-15,-17,1
-7,-10,-28,9,5,13,19,3
-9,1,-14,-3,4,-33,-24,1
-5,-6,7,-14,-2,0,7,2
-2,2,-61,-8,3,13,1,-3
4,1,-5,4,1,14,9,2
-1,-10,-45,-19,-6,3,-3,2
-2,-8,14,2,-12,-7,-5,-8
5,33,79,15,-4,-14,-10,3
-21,-58,-72,-49,-13,-15,-7,-7
-5,-2,0,-7,8,-6,3,1
10,-5,38,15,11,5,0,-1
10,-2,-47,-6,2,7,2,4
8,15,-29,-7,0,11,-2,3
2,20,-14,-6,-1,-1,7,9
-6,-9,9,-33,-11,-5,-9,-5
-3,-2,22,0,-11,-1,-8,-7
4,4,-11,17,-4,-12,-6,-4
-6,-9,-37,-7,-1,-5,4,-4
-2,11,-12,14,16,13,6,4
-11,-16,-27,-7,-8,1,-1,0
-1,-3,-25,2,0,-7,-2,-8
5,2,24,16,-6,-4,-2,-2
3,2,16,10,4,-4,3,-8
1,-4,-46,-12,10,6,0,1
4,1,8,11,10,1,-11,5
-1,-8,-18,-13,4,4,1,2
-3,4,10,1,-3,-33,-34,0
0,-6,-17,-4,-19,15,25,0
4,13,44,-1,-9,-8,4,3
0,0,-14,-19,-6,6,1,-7
-1,-8,-9,36,-5,1,8,1
-5,-8,-39,-27,-10,-17,-14,-5
-4,5,18,9,5,-5,-4,1
-7,-4,7,-4,9,4,-4,1
-3,6,41,3,1,4,0,-4
-1,3,13,-8,-9,-2,-2,2
-1,3,0,8,0,8,12,-1
-7,2,12,-2,14,-1,-1,0
0,-11,-21,-11,1,3,9,-6
3,-13,-1,9,2,-12,2,1
0,-7,11,3,-7,-2,-1,3
2,3,3,-7,-14,3,-7,1
2,5,-32,-13,3,-6,-6,-3
3,7,15,0,12,2,-5,-9
0,6,0,4,-1,1,2,-4
-2,0,-22,0,-9,0,3,-5
0,-1,-8,-8,-3,6,2,0
-1,-2,-6,8,-3,-11,-6,-2
-6,1,-5,-5,2,-1,-7,-4
-7,-4,40,24,0,4,-3,2
-1,-4,-11,-10,-6,2,8,0
-1,-3,-5,1,6,-4,-1,-1
5,9,16,-15,14,-1,2,-3
7,1,-2,3,8,-6,-5,1
4,-5,-19,-8,-3,3,-7,3
2,3,27,-4,0,7,-1,5
0,3,-19,8,-9,2,3,1
-1,-6,13,-1,-13,-8,-4,3
-1,2,16,9,8,7,0,3
-1,-11,-10,-1,0,-3,2,1
1,-5,28,1,-2,-4,-1,-1
-1,-8,-42,-3,-9,-4,-3,-4
-1,-2,-14,-10,-13,-8,1,2
-7,3,-9,-1,-9,-8,-1,-1
-8,1,18,4,24,-1,-6,-3
-5,3,-1,-14,4,2,-8,-9
-2,8,27,4,5,10,4,-3
-8,-9,-43,-16,-4,10,3,-6
0,-6,-2,0,-12,-10,-4,1
3,-5,-17,-14,5,2,5,3
3,1,14,0,1,-1,0,-1
-1,2,6,2,0,1,-3,-4
5,3,3,-4,-11,-2,-3,-4
6,-4,-7,7,1,-12,-7,4
4,-3,25,12,-1,-8,-5,-3
6,3,-11,18,8,-2,-2,-2
-3,-12,-50,-25,-11,10,3,-8
-7,3,-7,-9,-12,5,-3,0
-8,-1,13,0,-3,3,2,7
-9,0,13,-1,4,-4,0,7
-1,10,28,12,-2,0,2,6
5,-2,-55,-12,1,1,0,-2
-1,-2,31,17,1,-17,-10,-10
2,6,-6,-4,10,28,23,-3
-1,2,10,9,8,-9,-4,-8
0,5,-18,-19,0,1,7,1
-9,-4,-29,-9,-4,-1,5,3
-8,-9,-6,-10,-11,-14,-4,0
-1,-1,13,-2,-7,5,4,3
-3,-6,62,34,-3,-1,-6,-6
3,-6,-20,-12,2,5,-1,-5
4,5,7,10,-5,-8,-4,-1
1,3,-10,-5,1,0,3,0
