-5,-2,13,1,15,0,-3,-4
-2,0,-5,-18,-9,-7,-4,2
4,6,-5,0,2,2,-5,-4
6,1,-6,-9,-7,1,-1,-1
4,7,0,-3,-6,-7,3,2
-6,-7,11,1,3,-4,5,-5
-3,-1,-1,2,-3,6,3,-2
-2,-7,-19,-7,-4,3,0,-1
-1,2,-1,24,1,10,-6,3
-11,-3,-11,3,-4,4,-3,5
3,-5,-4,-19,2,0,1,0
2,2,16,-9,-6,-3,0,-5
6,4,12,9,-1,-12,-4,-3
-3,3,-7,5,-10,-7,-2,0
1,-6,14,-5,-7,-3,1,1
1,-1,16,-2,11,-2,-2,-1
-1,-4,-10,8,4,0,-1,-9
-6,-8,-26,-24,-16,6,1,-4
-12,-1,-3,1,-4,1,2,-2
0,-3,-6,-10,-22,-12,-2,3
-3,4,1,-7,23,4,5,2
13,1,19,17,-3,-8,4,0
-16,-8,-24,16,8,-5,-2,-11
9,6,-4,-22,10,6,-1,-1
-5,4,1,6,-3,-1,0,6
10,-5,-13,-17,2,-1,-8,-3
8,-2,10,-6,-9,-2,-3,3
-11,-14,6,11,-6,-6,-3,-1
5,-3,0,-13,-12,-4,3,-1
-12,-6,0,-16,1,6,-1,-3
-9,5,-23,14,1,8,-1,-1
-5,4,30,16,4,-4,-1,4
20,-2,-4,-2,0,-9,-8,3
5,-3,-18,-6,-8,-6,-2,0
1,0,-2,0,5,-2,0,2
-8,-6,-24,-7,14,7,-1,-3
9,13,16,-18,-1,8,1,-4
2,4,-1,-8,-2,8,2,-9
-17,1,7,25,5,-6,-6,-2
-11,-4,2,7,0,4,-4,-10
-29,-14,7,11,-7,2,-1,-8
65,22,3,-11,-3,4,10,16
6,-6,-5,-32,-29,-15,0,0
-3,-23,-16,-7,-8,-5,-1,5
-50,9,7,17,11,-4,-19,-21
-14,4,23,23,15,10,3,8
37,-8,7,3,-1,-13,2,27
10,15,1,-5,-9,-9,-6,3
-1,-20,-9,-17,-10,4,3,0
-42,-14,-4,-7,-10,-6,-5,-19
-2,-14,22,29,44,14,4,0
20,13,-6,12,-6,-8,4,-2
-9,1,-7,-11,-1,2,5,4
-17,-33,-44,-16,-18,-9,-14,-22
27,44,1,-16,-6,3,2,-4
-94,-24,0,15,-2,10,12,4
41,-9,-2,2,0,-5,6,2
29,14,5,-24,-27,-5,1,7
-70,5,-4,30,26,-1,-18,-20
56,62,10,-16,4,-2,-2,12
-109,-99,-19,19,11,6,3,33
32,43,47,35,19,-6,-4,12
-3,-13,-5,-44,-22,-12,-13,-30
20,40,5,21,-3,-4,-4,-21
72,-20,-6,-35,-42,-5,7,4
-23,36,-3,-16,-23,5,1,-14
23,-42,-16,2,25,12,10,23
-36,36,15,9,3,7,7,-20
-30,-4,20,-16,-58,-14,-13,-36
-66,-81,-22,44,91,20,2,42
62,72,-46,-34,-33,-13,11,56
-53,-25,4,-12,-1,-5,-5,9
5,56,-14,26,-1,-5,5,-13
-23,-79,18,-64,-59,-16,-22,-64
-4,-42,-37,64,79,27,28,35
121,-12,-30,-4,7,0,-13,3
-82,25,0,52,4,-5,2,-12
7,42,-4,-72,15,5,-3,-1
-20,-5,24,-71,-48,-13,-15,-25
-18,-33,-36,31,-79,-11,-15,-37
-33,-27,-18,87,88,23,-4,-12
21,-18,3,26,-46,-28,9,25
-66,-19,-14,-21,-29,-6,-13,-11
-4,16,22,-50,-86,-31,-4,5
47,-41,-30,-5,74,31,14,-28
22,87,0,28,25,7,6,20
-33,-19,18,-37,-37,-23,-18,-9
-2,-23,24,72,44,6,-12,-19
-13,41,6,-46,-47,-16,-10,-19
-49,-40,-11,35,32,8,4,11
-20,44,11,5,-1,-2,29,21
-17,-15,5,-36,3,1,-23,-9
-4,47,22,-15,-3,5,-11,1
29,60,-8,34,-7,1,-21,-55
23,-64,5,27,-79,-9,35,51
-47,-54,-36,6,125,15,9,46
29,100,-7,-123,-63,-21,-8,-9
-69,-60,25,88,58,15,0,-24
-8,-1,40,-49,-29,0,-1,-59
127,18,-37,35,81,20,58,108
-18,-48,-26,2,-3,-7,-39,-36
-5,76,-37,-74,-83,-25,-14,1
-61,-12,-20,-90,24,23,-23,-71
-128,-42,-35,-95,-65,2,-3,-32
126,17,32,66,9,-24,-10,76
28,16,-46,-32,32,11,36,45
-53,-68,-15,88,-15,-1,-5,-27
-123,127,59,-70,5,5,-12,-42
93,-66,41,67,3,13,33,79
15,-10,113,-80,-44,-18,-3,-4
17,106,28,4,37,-10,-27,-11
-22,-128,43,82,30,10,15,-37
50,-12,-65,-48,8,8,26,-13
-40,100,47,-58,-50,-25,14,78
58,-53,-32,-56,36,26,0,-29
53,21,13,27,-42,-17,13,51
-32,117,47,21,-16,-7,-39,-111
90,10,34,41,14,14,24,13
-88,-54,-56,-2,10,-5,5,66
6,3,-34,-11,-16,6,-17,-32
-128,-102,-24,55,-34,-30,6,-4
36,9,-18,-36,65,40,-5,-37
55,45,-38,54,-55,-13,-9,54
-67,-32,76,34,26,1,10,14
-54,115,7,-128,-61,-31,-22,-29
-12,-7,-37,66,61,31,-4,-35
73,-37,34,28,3,-12,41,72
19,58,-18,-29,2,4,-18,-44
-24,-35,-60,-57,-12,12,19,-11
-90,-34,30,-54,-91,-48,-23,8
-36,94,49,32,56,12,-44,-74
93,-27,-31,4,-7,6,35,87
41,-71,80,47,8,2,2,30
-4,-124,-102,-52,-26,-9,-8,-11
-100,6,32,-52,-74,5,11,-51
-11,20,92,47,56,36,51,27
33,80,-23,32,61,-8,-19,3
-24,-60,-92,5,-17,-24,-16,25
37,-59,-40,-46,-29,-6,2,-20
-122,13,-36,-37,-71,-5,-7,-24
-67,30,33,-34,20,23,35,35
59,-17,32,16,14,-13,-37,-3
-4,66,70,82,26,-23,-47,-45
-56,18,-72,-48,-117,-21,3,-23
69,-124,34,37,71,64,32,43
-124,-23,-63,-24,-17,-39,17,64
88,-16,48,-2,54,22,-18,-8
127,108,-73,-40,-4,-19,-45,-81
30,-15,82,-124,-84,-31,-18,10
-5,28,-69,62,66,29,-7,-93
66,-102,7,2,23,24,58,78
-106,-19,29,8,12,-20,-51,-31
-3,48,-65,-73,-26,-12,-15,-14
11,80,108,-28,-39,20,9,-36
17,75,57,-44,79,35,49,81
-40,-10,-2,48,22,-26,-50,-60
-37,67,-51,-13,-3,-25,-22,5
46,-94,104,-47,-75,7,19,-26
-123,-9,-77,-6,-38,-5,12,-22
127,85,53,59,102,23,22,82
-70,25,-28,48,-2,-22,-40,-33
73,34,67,30,51,13,-15,-50
64,74,-66,-35,-28,27,23,26
21,-95,37,-77,-23,-5,36,67
-50,21,-11,42,-52,-28,-31,-31
-34,29,99,-30,48,23,13,-7
5,43,-58,30,-6,-20,4,38
71,64,-28,-64,-5,4,11,11
31,-8,-23,33,31,16,-2,-54
-56,32,71,63,31,-3,-3,52
60,40,77,8,16,-5,6,26
-104,-69,24,25,-28,-5,3,-15
88,35,-36,-77,-40,28,6,-20
-61,-93,-118,-28,18,4,40,82
-128,-26,-10,-35,-20,-76,-66,-56
24,-56,-3,13,-10,-4,-21,-16
17,-128,17,7,3,79,96,26
-112,54,49,96,-8,11,17,7
110,-58,-96,-36,-10,4,-12,7
-19,-7,97,-10,-8,-25,-58,-69
-88,-105,6,22,28,6,19,50
73,79,-71,-60,-33,-29,-14,2
68,74,113,117,51,17,-4,-12
-83,-55,-24,-29,-23,-5,-25,-18
-61,-34,-57,3,-29,-35,-35,-22
25,28,-36,5,-23,-5,-14,-48
-83,13,-9,-86,-57,-4,0,-11
127,-60,53,59,89,58,53,37
-17,30,-35,-74,-11,-29,3,61
-41,-19,24,7,19,-15,-9,-17
-118,-105,-81,-69,-32,-8,-38,-95
64,25,17,5,-84,-8,42,8
-97,54,-48,84,86,31,25,38
120,-99,-7,71,23,27,41,74
-36,-7,51,-43,-52,-14,-41,-53
-74,42,73,52,-21,0,-29,-36
118,112,-18,60,-11,-22,23,58
-58,-57,49,-108,-35,0,-15,-18
-70,-11,-47,37,40,-4,-9,-18
58,79,42,-23,12,-13,7,32
-81,-109,84,30,1,-27,-47,-105
96,32,-1,-9,-45,9,24,69
49,-14,79,-3,15,23,31,-15
-116,56,-95,-93,-57,-29,5,46
3,94,127,55,91,44,-27,-18
-8,-8,-89,-59,-41,-52,-34,-15
-15,1,13,1,-16,20,8,-61
62,15,-11,35,12,25,39,4
-66,-94,-38,-33,-17,-19,14,28
-19,31,50,35,-36,-27,-16,-14
56,41,7,12,13,-3,0,13
-109,-56,-82,113,122,39,-19,-26
57,38,49,-83,-73,-29,-10,18
-7,-24,23,82,28,-18,-53,-61
1,44,-19,-8,-39,-40,16,38
5,9,-66,-70,-32,57,37,14
8,-32,1,18,-6,-3,-7,-32
-49,68,-51,-22,13,26,16,-16
13,28,72,33,-5,20,24,38
3,-19,-93,-40,14,-33,-32,-10
24,-6,-33,-18,7,-2,10,13
-56,3,32,8,-2,-15,-30,-52
11,-16,-17,3,-5,-11,-18,33
14,2,22,13,-21,3,-2,-13
-6,14,17,-8,-6,1,-3,1
21,-60,-45,23,4,-11,-7,6
1,21,-55,-27,-1,-26,-22,2
1,-3,39,-9,0,7,18,-2
29,42,20,-10,8,4,5,5
-4,0,33,-6,20,35,27,-8
7,-5,-9,16,5,-26,-24,13
-30,-14,-4,-8,-16,-35,-24,-9
-3,-11,4,12,0,40,28,-23
25,26,20,-21,-9,-18,-7,17
-27,-36,2,25,-3,66,41,-8
-5,-17,-67,-75,-23,-12,-30,-12
17,-12,22,10,-3,-13,-27,8
3,-13,-23,14,18,9,22,1
11,19,-55,4,4,-31,-19,12
11,7,67,4,4,-10,1,-1
11,12,-98,-1,13,-12,5,-9
-9,24,13,2,-19,-34,-9,-2
-18,-24,-60,-92,-31,-7,-4,-20
4,9,40,21,-9,14,14,-5
-3,-17,49,19,-4,10,1,4
16,11,-84,-30,6,-4,2,-5
0,10,127,121,32,12,2,-6
10,-10,-13,-98,-20,-4,-3,43
-8,11,-43,-23,2,-3,-15,-52
-14,-6,42,19,5,12,-4,-7
5,-3,0,14,11,-16,-7,0
-18,-33,-18,89,7,-26,-21,7
5,13,121,-17,-15,-53,-17,-27
17,3,-98,-73,-18,78,58,25
5,4,49,85,15,12,25,36
17,-3,102,6,2,-12,-16,-1
-30,-15,-92,-9,6,0,0,18
29,9,-9,-5,9,3,-29,-11
1,14,58,23,-4,11,6,-15
-4,-5,-119,-45,-9,-16,-3,-22
14,-18,-52,-79,-11,-42,-24,22
-8,11,74,44,-2,5,16,-9
-11,-28,-32,-60,-26,-9,5,13
2,11,-22,25,8,-10,4,-3
-11,-4,-60,-53,-9,0,-1,6
-24,1,14,15,5,-11,-21,-35
39,8,19,-39,1,8,-28,-8
-32,-13,-31,27,9,11,21,-32
2,1,63,19,-2,5,-1,0
8,34,-27,-5,14,-1,6,-8
-8,-27,127,25,-16,-6,-3,24
13,8,53,-44,-15,-1,-14,8
18,27,116,78,5,24,21,17
-18,-42,-47,2,-10,-34,-37,-11
-3,9,-42,-42,0,-8,-11,-19
9,0,-10,-22,6,52,30,7
-11,-6,34,49,8,23,20,-2
-2,7,-7,9,5,-3,-4,9
-17,-22,-100,-23,0,-3,3,-8
-3,-10,-15,14,-10,-14,-7,1
3,13,17,26,-3,4,1,-4
2,2,54,26,1,-1,7,11
-9,5,-92,-16,-1,-8,-3,-15
9,15,80,30,6,-11,-6,5
5,-13,-46,-28,-1,3,-3,0
-2,-12,20,-8,-1,-10,-5,10
-8,1,33,14,11,-5,-13,-4
-2,-2,-24,2,3,7,3,-14
8,-7,-31,-14,2,6,0,8
5,-1,50,-4,-7,0,4,9
2,21,-31,12,6,-14,-17,-5
-4,-19,23,-14,-20,-22,0,2
7,13,88,38,-5,22,10,11
1,-16,-59,-10,-4,30,27,4
-10,-11,-20,-8,-7,6,4,-12
-1,12,-2,9,-1,-17,-19,-5
-4,-11,-42,-16,-3,-15,-9,-3
0,10,43,16,3,-12,-10,3
-3,2,5,-11,2,2,4,-4
-2,-4,-20,11,11,0,-2,-4
-4,0,16,18,12,1,7,-1
0,-12,-29,-41,-20,-11,-3,0
-3,-12,7,-4,2,15,13,3
-5,-18,-49,3,-1,-20,-21,-7
-3,-7,-4,-5,-2,23,-3,-5
4,11,38,14,22,-10,-2,0
-8,0,-65,-46,-12,-37,-18,-27
3,-8,-31,-8,-9,57,74,37
-5,11,25,12,-7,-12,-8,6
-7,-8,14,5,-6,-2,-8,9
11,24,96,-13,-8,-2,-5,11
3,0,25,35,10,-20,-34,-12
-2,-13,-33,-25,-4,4,-2,-7
8,-10,-27,-13,-14,3,-6,-3
1,-4,31,55,14,0,-2,-4
3,10,18,-26,16,1,-1,3
-3,0,13,8,24,-4,7,7
-9,2,26,-3,-3,-5,-5,-10
-11,-17,-27,-12,-18,11,5,-2
-7,0,1,-7,-11,1,1,-6
-2,3,-20,-13,-7,-9,-1,-1
-2,1,51,7,-1,-16,-12,0
-5,-17,-64,-32,-5,4,-10,-1
7,13,62,5,5,48,39,1
0,-5,-27,-12,-3,-11,1,-7
3,0,4,21,8,5,4,2
3,16,28,16,7,1,1,6
-9,-9,31,-14,-6,-23,-26,-11
3,-2,7,5,-15,-3,1,0
0,-2,-7,-14,-9,4,1,-2
-4,-3,4,1,7,5,8,-1
1,2,-10,-14,5,-12,-10,-3
2,5,28,18,30,1,5,-2
-8,-9,-32,-4,-6,-8,-5,-6
-1,1,23,20,9,-9,-10,-4
-1,-4,9,10,-3,-8,4,0
4,6,14,-26,-6,13,6,7
4,7,0,8,-4,3,-4,4
1,5,81,42,-2,0,1,-3
-9,-9,-73,-32,-14,9,-1,-1
-10,-9,-32,-13,-11,-26,-35,-6
0,5,12,1,13,40,41,7
5,5,4,2,-5,-3,13,2
3,5,8,2,2,-15,-7,-5
-11,-8,7,13,-6,0,1,-4
-10,-5,-21,-13,-8,-7,-18,1
2,-2,-20,-17,-6,6,-3,5
2,-5,-15,-7,-2,-6,-2,-2
5,4,8,0,-13,-4,-2,0
1,-4,-35,0,18,-5,-7,0
-1,-3,-1,-11,-4,4,8,2
6,9,-2,13,32,2,-10,-6
0,4,37,5,-10,-5,4,-11
-2,-5,-8,16,11,-4,2,-2
2,2,-25,-17,-8,0,5,2
-4,-11,-15,-9,5,-4,-12,-1
-5,0,8,5,2,5,-5,-3
-2,-4,-9,-5,-4,3,9,-4
-1,-1,-2,3,-11,-16,-22,-3
-1,-4,-21,-6,-27,-27,-1,0
2,1,1,1,-3,8,1,2
3,5,-11,-8,1,20,18,5
-4,-2,-10,3,10,6,4,-2
0,2,6,10,0,-4,-4,-1
0,0,0,-2,-1,-13,-2,1
-3,-2,50,-8,-5,-11,-7,-6
-2,-11,-55,14,0,6,2,-3
-4,2,10,0,7,-1,-8,-1
-1,1,-4,-13,0,3,2,3
3,3,-35,-12,-6,-8,-11,1
0,-5,21,-14,-4,4,10,-1
0,1,24,9,-17,-6,-5,-3
-3,-10,-42,3,5,9,1,2
-4,0,-7,10,-9,-6,-7,-1
-4,-1,2,-4,-1,6,6,0
0,-2,-12,-5,-5,-3,6,0
10,6,25,-13,5,-1,-10,-3
0,-3,-6,27,-3,4,10,-6
-6,-6,-16,-11,-12,-5,0,-6
-4,-5,24,-1,-11,-2,-4,-6
-1,-7,-5,1,1,-10,1,-5
4,2,32,12,14,-5,-9,4
2,6,30,-2,7,8,2,8
-1,7,2,10,-6,5,-1,1
-3,-1,19,14,-3,-1,-5,-3
-7,-7,1,1,18,-5,1,-6
-6,0,-51,-11,3,-1,0,-4
0,6,13,8,10,0,-2,2
-7,-5,-19,-10,-9,0,0,4
0,8,7,-8,-3,-3,-10,1
1,-3,20,0,-2,5,6,2
-2,4,18,-3,-4,-1,-7,-4
-6,-2,-46,-27,-3,2,-1,2
-9,-18,-12,-8,-9,-23,-17,-6
3,-8,16,-1,0,23,21,8
8,-5,-8,5,-7,8,12,5
6,7,14,12,-2,6,15,3
1,9,4,-7,-8,5,0,-3
-4,5,-2,3,0,-12,-18,-7
-7,-3,2,-1,3,-10,-6,-1
0,-3,-25,7,1,0,-2,-1
4,-4,21,1,-2,-14,-15,-9
-1,-8,-23,4,9,-3,5,-6
2,-10,-16,-8,-12,-6,4,-1
