-8,-2,14,24,0,4,-1,-1
0,-7,-16,-30,-9,-5,-5,1
-3,1,-2,11,3,2,1,2
7,6,2,-9,-5,-5,3,3
0,-3,10,5,8,-1,2,-3
-12,0,8,1,-3,0,-4,-4
-9,-7,7,6,6,0,-6,-2
6,-9,-9,0,5,-1,-1,-2
17,10,-12,-7,-4,1,2,1
-7,-6,-6,8,1,0,2,-5
0,10,5,-6,-4,-4,0,-12
-5,2,-11,-13,-15,-6,-1,-3
-3,-12,9,6,6,0,-6,2
0,2,-16,10,3,2,-1,8
-3,-6,0,-2,-5,-5,-2,3
-7,-2,13,10,8,4,4,-1
8,3,-6,-22,-23,-8,5,1
-5,-2,-14,-10,-4,0,-2,1
1,4,11,-3,0,-1,-5,-3
0,-5,-3,9,2,3,-10,-6
5,8,-4,8,5,1,-4,1
0,-4,7,-2,2,-6,-7,1
5,-10,0,-10,-11,-11,1,0
5,-3,7,6,6,-1,-1,-1
-5,2,-3,-15,-19,-1,4,-8
-10,-7,10,40,44,6,5,-4
2,4,-7,-7,11,1,5,0
-6,-2,-17,3,16,-4,1,0
13,13,-11,-21,-7,-3,-3,-3
-24,3,17,-15,-23,-2,-2,-2
5,-12,2,-1,-12,4,0,0
-8,3,-1,4,7,3,-3,-2
1,-8,0,11,0,-3,-1,2
14,11,-7,-2,-3,-2,1,2
7,-3,5,10,3,2,-1,4
-15,-2,-15,-3,-3,1,-2,5
-5,-7,0,-13,1,-3,-1,-5
0,1,-3,-28,-10,-5,-4,-9
-12,1,6,35,31,1,-2,-2
8,1,-3,-6,-11,-5,-3,-4
-8,-3,15,30,10,-2,-3,1
58,19,-13,-30,-5,-4,2,8
-53,-42,-37,-30,-26,-2,-6,-11
-10,10,37,7,-2,6,-5,-5
0,20,13,8,-4,3,-3,0
-16,-18,0,11,7,3,2,-1
3,6,-14,13,4,0,0,-5
23,-1,-18,-34,-9,-8,6,7
-1,-8,18,11,-1,-5,-3,-1
-5,-9,-29,0,3,-2,-3,-7
-1,17,25,0,12,5,-2,3
-11,-9,15,0,1,1,-1,0
-2,7,-5,-2,2,4,-3,6
3,-8,-9,-2,-6,-1,-6,-1
2,4,26,15,14,-3,2,-6
4,2,-3,-9,-3,-6,3,-3
2,-1,-23,-8,-8,-3,3,9
-44,-16,9,16,-4,-3,-5,-6
18,10,4,3,-15,0,0,6
26,-2,-1,7,-5,1,6,9
29,-12,-17,-10,-8,-3,-7,-13
-40,12,-5,-20,-7,4,4,0
-12,-17,-3,-20,13,6,-1,-5
21,21,-5,10,12,1,-3,-5
-25,-27,4,-17,-7,-2,3,-5
49,28,38,45,-4,-4,4,7
-20,1,-4,-10,-13,-9,5,8
-28,-7,-1,-10,-18,-1,-3,-4
-6,-3,-26,-13,23,5,-5,-12
-78,27,31,-1,8,2,-2,-25
93,-5,22,20,-6,-12,13,52
-38,-26,-16,10,-14,-4,-5,-4
12,11,12,12,-11,2,-1,9
24,-6,-8,-12,0,-1,-3,2
14,13,-18,-19,-3,8,-6,-22
-31,-50,13,-5,10,5,4,4
-42,10,1,9,3,-10,-12,-7
32,5,-24,-14,-6,-5,-12,6
-22,16,3,3,1,1,1,12
55,24,6,0,-4,-4,7,4
27,90,-5,-16,-5,1,4,-26
1,-118,33,39,40,1,10,39
23,53,-47,-32,4,-6,-4,-15
-96,-1,-5,-35,-22,-3,-13,-30
29,-16,21,61,16,11,12,9
-31,4,-7,-8,-27,-15,-6,-8
8,-35,-25,-25,-23,0,4,10
27,28,19,60,101,14,6,15
-18,-11,-12,-42,-23,-11,-16,-16
53,15,-5,-7,-6,5,2,9
-59,-37,24,63,34,10,1,-12
68,42,-24,-25,-24,-6,-6,-9
10,-34,12,40,43,1,6,24
-60,20,-3,-45,-8,-1,0,-22
-17,-27,2,-6,-21,-11,-17,-18
5,-28,-26,-2,-12,4,-4,-15
-24,-16,-26,9,9,12,-2,-16
12,-7,-26,-15,-15,-15,-10,-2
16,10,-43,-17,-22,-10,4,-6
-41,-61,17,-25,-23,-9,3,19
-69,55,68,40,13,-3,-8,-31
-19,-69,-97,-17,-4,-4,5,-3
8,39,45,31,14,7,-6,3
1,-6,-45,-10,10,4,6,1
-40,-17,31,-40,-38,-9,2,8
49,1,-26,-15,2,-7,-8,9
-7,14,26,47,39,8,-5,-6
30,33,11,-9,-26,-3,6,0
3,-8,-104,-68,6,5,6,17
-18,30,122,65,-6,4,-3,-14
19,-59,-43,-26,10,-6,1,13
16,33,52,37,-15,-5,-1,1
-33,-56,-42,-27,-18,-3,-7,-15
37,63,11,-7,-10,7,5,10
-19,-49,41,5,-16,-5,-14,-13
-9,21,-53,-15,0,-1,6,-1
118,-69,-34,-7,-4,-3,1,32
-49,16,-56,-15,7,-3,-16,-29
-57,53,71,-5,-12,-2,-1,-21
66,-55,-28,-15,-13,-7,0,7
31,19,48,29,24,9,11,18
19,-28,-37,-19,-30,-7,1,3
-11,-62,-128,14,48,14,6,-2
-35,-14,70,-8,-7,-7,-13,-1
46,54,16,35,3,-3,-1,-5
70,30,17,-11,4,-4,-7,-2
-66,-24,61,-54,-26,2,6,4
-18,16,-32,34,2,-4,-12,-14
-89,-56,-93,13,-3,2,-12,-16
69,76,49,-6,34,23,24,13
44,-60,-5,-11,-11,-8,9,21
5,4,-7,7,6,-3,-3,-19
-15,-25,-23,-6,-26,-13,-2,2
-31,-44,-72,0,-8,6,-1,-17
-19,65,89,-17,-13,-12,-5,3
29,-19,-6,32,23,12,5,7
-62,55,94,0,22,5,5,-7
10,18,-2,-20,-6,-7,2,9
-8,7,-35,8,5,11,1,1
-16,-14,-1,-30,-29,-12,-10,-5
-18,20,59,-14,0,-2,3,-24
39,-3,22,126,36,8,13,28
-12,53,37,-77,-25,-11,-18,-4
-34,-78,-67,-40,-7,2,3,-6
40,24,67,52,-30,-5,3,13
-26,40,61,10,45,7,3,1
-16,2,14,21,-4,-2,-4,-17
-27,12,78,1,-12,-11,-9,9
66,-13,-83,-23,-39,-11,-4,6
-20,14,-7,-4,36,5,-4,-5
-11,85,-90,14,2,2,-13,4
-42,-20,81,48,21,15,1,-11
57,46,-37,-56,-17,3,0,9
-55,16,104,26,-24,-22,-20,-6
34,54,62,-6,3,-6,-2,-13
60,-48,-70,-21,-27,-12,6,42
-11,10,2,43,81,9,1,-12
-22,-92,-110,-10,-8,-1,4,-9
0,20,23,-3,-22,-1,10,-3
14,96,-59,-31,-27,-7,1,-16
-46,-97,26,1,8,6,6,8
-27,25,-14,-25,-11,6,-3,-15
60,27,40,45,1,3,9,3
0,1,-29,-12,19,2,7,10
-46,5,26,-32,21,-5,-13,3
90,-2,19,29,-8,-8,8,10
-62,-128,-10,-47,-34,-20,-8,-6
47,93,-51,15,19,-12,-24,-3
-7,-25,-47,2,-15,-1,-9,-6
-8,-3,18,-47,-19,7,13,-5
23,19,59,-14,-23,-10,-27,-9
-23,-45,11,39,21,14,31,12
-86,-55,101,-8,-14,-13,-10,-21
24,-4,14,-19,-19,-13,-18,-3
-6,-21,-101,37,11,1,6,-4
-12,12,-44,-61,-3,0,-6,-11
-11,11,21,-2,-7,5,-7,-8
-39,-8,-79,-24,-17,-6,8,-4
24,-6,-28,35,25,13,9,23
-44,46,81,-45,-16,-19,-53,-18
69,-69,-74,24,-2,3,48,29
-56,-5,-30,-5,23,4,-18,-14
11,-48,-55,-46,-6,-2,5,-14
-46,-23,-66,-11,-5,-14,-4,-22
8,55,12,-34,-35,-9,-19,-16
-11,-61,99,39,21,-1,16,29
120,6,-35,5,1,-6,2,16
-41,-16,28,38,15,14,20,9
-4,-28,-8,-13,-7,0,-15,-17
-15,-74,-91,-23,-18,-2,-5,-4
-1,1,-17,28,24,15,4,20
29,16,-24,-32,-15,-4,5,-7
-13,19,53,12,13,0,3,-11
-12,-10,51,34,8,2,-1,8
-10,-23,-72,-46,-37,-15,6,1
-22,-29,-12,17,-9,-2,-12,-8
2,54,27,29,38,16,12,8
38,-56,-53,-29,-10,0,-2,0
-10,52,-16,14,17,12,-2,-27
-3,-2,48,20,-24,6,14,23
52,9,-53,51,44,4,-9,11
-34,61,-27,-9,-9,-5,-10,-16
56,-10,81,6,4,-3,-8,9
45,78,69,17,21,1,2,8
10,-24,27,-35,-32,-10,4,9
-5,56,32,-1,-6,-7,-15,-19
-53,26,-65,-27,-11,-3,17,-8
-25,22,6,34,2,13,1,10
38,109,75,13,-16,-4,9,16
12,12,-45,6,12,10,1,-1
-59,17,1,-11,11,17,3,-17
67,-2,76,-9,11,2,6,6
-31,-111,-128,-77,-48,-39,-11,2
32,10,-64,-6,-14,-12,5,-17
-44,39,63,108,91,13,9,19
-38,43,54,11,15,20,-2,-19
-9,-15,-71,-17,-6,5,-10,1
95,65,77,-9,-24,5,8,35
-21,-13,63,8,-25,-23,-24,-27
-27,-98,-77,-40,-6,-14,-3,-1
-50,39,31,55,23,8,12,-24
2,-41,-86,-13,1,-1,3,48
1,-13,-105,-80,-20,-9,-7,-3
7,-40,-7,26,17,8,1,-2
-28,36,-3,-11,-30,-15,-20,-22
8,-4,21,2,-1,11,7,-2
31,18,91,64,14,5,17,38
-16,-50,-122,-54,-15,-15,-20,-3
29,-31,17,-23,-2,7,-13,4
-58,16,-51,23,20,14,33,-26
89,39,11,-59,-45,-5,-5,2
-24,22,-24,42,48,13,11,3
45,69,49,66,24,3,-3,16
-32,-91,-45,-48,-13,-14,-20,-22
-71,-8,17,-34,-34,-17,-9,-30
27,32,13,2,-18,-11,-9,-7
27,-61,-3,10,7,12,2,8
-30,25,45,74,16,5,-3,1
-6,-52,-128,-93,-19,-11,-8,-17
3,48,10,17,-6,10,-28,-26
-6,-36,-27,-3,-2,4,44,44
50,13,-47,-9,-3,-2,36,0
-37,-13,-34,17,9,9,8,-3
-39,-6,6,10,14,-3,5,-20
87,25,-28,-30,-10,-3,3,18
-83,-31,12,-24,-23,-18,-37,-9
12,-31,-109,42,51,3,6,17
-3,-7,18,-43,-25,-11,-5,-3
-13,69,76,33,-4,1,-18,-24
-36,-82,99,0,-1,-3,-9,2
27,-72,-65,-11,-31,-13,-25,-1
0,-16,47,-9,7,0,8,-9
-9,-53,-57,-29,-14,-20,-4,-1
-105,46,78,20,-3,11,-1,-29
76,101,113,-2,-12,-1,-6,23
16,-113,-85,35,25,-2,3,22
-2,33,28,-49,-14,0,-9,-13
9,5,-6,6,4,-5,12,-30
-1,51,93,33,-1,18,23,46
-6,-48,28,20,17,-9,-17,0
-16,-49,-55,40,29,4,10,-2
-3,12,26,-27,-19,-19,-30,-14
-23,4,32,10,-19,-12,-4,-26
50,78,68,41,-6,3,18,23
-13,26,-35,19,35,16,-2,-3
19,-86,37,-6,20,5,-5,-9
-18,24,18,7,6,-2,-8,3
-6,-16,70,-3,-37,-5,-4,12
-18,32,-60,-39,13,6,1,-18
15,56,27,-44,-21,-5,2,12
0,-76,-93,6,9,9,8,-26
-53,55,8,16,-4,-16,-2,9
-51,-28,-24,-47,-24,0,15,0
59,79,20,-28,-15,-2,-1,20
-35,19,48,38,14,11,2,-13
43,66,-39,-18,-18,0,-15,-5
-23,-100,-32,17,-20,-8,-5,-6
4,51,10,-40,1,-5,-9,2
-3,0,78,2,-3,-11,-6,0
-36,-9,-46,-22,-11,3,-5,-6
42,35,-6,25,13,-9,29,30
4,2,-17,25,37,13,-24,-15
-19,18,83,20,8,1,-6,-22
3,-31,-21,-26,1,15,37,-2
26,-8,-35,-41,-44,-22,-10,30
9,54,33,58,16,7,8,12
-53,-84,-18,-17,8,-13,-11,-16
38,-32,26,2,-4,-1,-11,-20
-44,17,99,29,5,17,12,-18
-1,39,14,0,-19,-19,-11,25
47,8,-111,-80,-27,-7,-20,-10
6,-46,1,2,0,-10,-7,3
-11,39,-27,-8,-4,-5,-57,-33
19,3,43,15,4,12,59,27
56,-29,1,35,9,6,20,27
-41,-64,75,11,34,-9,8,8
13,25,-63,-36,-5,-5,-12,-9
-52,-63,-40,8,-17,6,-15,-31
-47,17,85,-7,-29,-2,9,-13
116,27,-65,61,24,-2,17,58
-26,21,-18,-57,1,-2,-2,5
45,6,36,33,2,8,-1,-4
-68,7,-41,24,14,20,23,-4
-59,113,38,-34,-20,2,-22,-22
31,-81,110,65,-4,-7,15,25
11,-62,-128,-90,-7,-23,-13,4
12,-6,38,6,1,4,-6,-16
-26,-45,9,-31,6,15,-8,6
38,11,12,-13,-11,-12,2,-22
-23,12,11,19,6,-4,0,-1
71,28,18,26,8,-9,-3,1
-43,51,40,3,12,9,14,-2
-43,-102,-6,19,5,-2,-20,-6
-19,-71,-71,-15,-6,-9,-19,-22
-7,31,12,-32,-44,-14,-31,4
16,-25,-77,14,30,6,10,-12
23,37,127,11,7,10,0,-4
-27,-5,1,4,-16,-10,-5,-10
36,33,10,4,-1,6,11,12
10,-5,-87,-64,-30,-14,-6,-15
-1,25,62,6,5,-1,0,-8
5,-54,-26,12,13,6,-6,17
-17,11,-17,-8,9,1,-10,-9
-13,-8,-29,9,3,7,7,0
-19,14,-1,-8,-4,3,-17,-11
20,47,-40,10,0,-4,9,20
-9,-2,26,13,14,-6,-3,2
5,31,31,13,-6,-1,1,-15
-23,-41,-78,-10,-13,-5,1,-5
-8,-21,49,23,16,17,4,2
5,2,-128,-11,26,13,9,8
52,-107,-88,18,-10,-8,-7,9
-35,9,77,-22,-12,-11,-1,0
-3,-7,-71,-22,-11,-8,-2,-5
-10,-8,8,0,1,-6,0,3
1,21,-17,-10,-6,-3,1,-6
13,31,-1,14,14,7,17,2
6,1,28,8,7,-1,1,-2
-6,-52,-39,-8,3,-11,-6,-8
0,13,27,-8,-13,4,-9,-10
-2,-20,-44,0,2,5,-14,3
6,8,17,-12,-6,-20,-19,-11
-9,-19,6,14,4,14,6,6
4,11,41,-8,-9,11,-1,6
11,44,-25,4,6,4,21,9
4,9,4,8,12,12,12,4
-1,1,-8,-3,-2,-20,-11,-5
-13,-4,-32,-13,-8,-12,-4,-8
1,2,-64,-5,2,-8,-11,-2
2,5,54,20,-2,-10,-2,-2
-14,-13,1,-5,1,0,-3,-3
0,25,17,-34,-7,11,10,-1
-3,-4,19,18,11,1,0,-2
-1,-5,-14,-22,-11,-4,-4,0
1,-1,13,-10,-6,6,3,6
-8,-6,16,31,-3,-5,-1,-2
0,-3,-20,-12,-3,-1,0,-1
-6,-6,-3,-16,-1,-1,0,-1
0,-2,35,37,7,-4,0,0
-1,-2,-4,17,3,-11,-6,0
2,-20,-27,-21,-8,-4,-4,1
4,9,64,26,12,2,-3,-4
-2,-11,-31,-54,-13,-1,1,-4
-1,8,80,32,2,2,5,1
4,5,50,-23,-5,1,3,3
5,-8,-84,27,7,4,1,2
-1,-9,-23,-40,-6,-6,-4,6
-11,1,51,13,-6,-9,-1,-9
-9,-12,0,-50,-8,-6,-4,5
6,9,-27,22,6,2,-6,-2
-2,-4,60,45,13,9,0,0
-7,-12,-87,-48,-11,-2,-2,0
5,4,-72,8,6,9,6,-12
-1,7,127,61,-11,5,4,-7
-6,-17,-19,-28,-22,-5,-3,-7
11,9,52,-32,7,1,-1,3
-1,-3,8,21,-7,-10,-2,3
-3,-3,-32,-28,1,7,4,3
7,28,-14,28,8,6,-2,1
-8,-6,83,24,7,-3,-13,0
-6,-11,12,26,14,-1,-8,-2
-9,-13,-98,-40,-2,-9,1,-3
0,-4,46,-19,2,5,8,2
6,4,-27,20,7,18,23,6
-4,-12,17,31,-4,-7,-1,-6
4,4,8,33,0,-4,1,0
-5,-22,-84,-97,-5,-9,-12,-5
6,5,-65,5,-1,-6,-7,1
1,-1,19,49,-7,7,5,0
-4,7,0,-43,-7,3,-5,4
8,23,111,62,13,9,5,9
-15,-38,-107,-34,-5,-13,-16,-3
6,20,38,-3,10,5,-3,10
-7,-17,-39,-58,-15,-9,-5,-7
2,-3,11,43,-4,-5,1,-1
-1,7,43,2,-3,-1,4,-14
4,5,-30,4,6,-5,3,-2
8,-7,18,3,-3,5,7,-2
-5,-6,-6,23,-2,5,-1,-6
6,17,22,13,-3,-1,1,1
1,-2,-51,-13,1,3,-4,-7
-4,1,45,2,-6,0,-3,1
