0,3,17,22,8,4,2,-1
-3,7,12,-4,2,-1,0,-3
-2,-7,-16,-11,-12,-4,-1,-5
3,3,5,-1,-13,-6,0,0
1,2,6,7,4,2,2,3
-4,-6,-8,-11,-10,-6,-1,0
3,9,26,3,6,-1,0,-1
-5,-7,-19,4,-5,-1,-2,-1
-3,-1,6,-9,6,1,-1,-2
3,8,-11,11,13,4,0,-1
3,-8,13,11,7,0,-1,-1
-1,-6,-1,-4,-17,-8,-5,-3
3,1,3,-17,-17,-1,-3,1
-17,-6,5,8,0,-3,-2,-3
5,4,-6,12,19,4,2,-2
-1,-7,-7,-34,-13,-3,-1,-5
2,8,8,22,1,-1,0,-3
-1,-1,-13,0,11,-3,-3,1
10,-2,7,-1,1,-1,-1,3
-4,-4,-3,1,-15,-5,-3,-3
-3,5,-5,-12,5,-1,-1,-1
-7,-7,-8,-5,2,1,-1,-2
-5,-1,-9,13,-1,-4,1,-1
4,0,-4,-18,1,4,4,3
6,8,8,14,4,0,2,3
3,-7,0,-2,-10,0,-1,0
0,0,6,-7,-1,-1,-5,-3
-8,-7,-9,10,1,2,-4,-7
-5,8,20,3,16,-1,0,-1
9,4,-9,-3,-11,-8,-2,-1
1,-5,6,-18,4,6,6,4
-7,-7,22,2,-6,-7,0,-3
-14,-10,-3,-12,-6,-1,-3,-4
-5,-5,22,11,0,-2,-2,-3
-2,1,-14,-6,-6,-2,-3,-2
12,4,-1,13,9,4,3,6
4,-3,-18,-15,-14,-5,-1,1
-13,-3,3,-7,0,1,0,-1
3,4,-3,-21,-22,-4,-2,-2
-3,-2,16,38,25,6,0,-3
-1,-1,-18,-10,-11,-5,-3,-3
-2,-4,2,6,-12,-4,-4,-1
-14,6,2,5,-1,0,-1,-5
15,-2,-5,-42,-3,-1,0,8
-1,-18,11,28,7,-3,1,-1
1,8,15,13,33,5,1,-4
2,0,-1,1,2,1,-2,-1
-7,-1,-17,-9,-13,-3,-2,-3
-12,5,5,1,-4,4,-3,-4
1,-1,-10,-22,-9,-1,-3,-2
6,-10,15,11,8,1,3,5
18,6,-13,0,-2,-4,2,3
-6,-3,-10,-13,-8,-7,-2,0
-1,1,-2,-22,-15,-4,-2,-4
-12,2,-1,14,15,2,-3,-5
3,4,-2,13,8,1,-1,0
11,2,-2,-12,-3,2,1,3
-7,-7,-16,16,14,5,-2,0
-5,1,-4,-6,3,-2,-1,0
-13,-16,0,-3,-10,-5,-2,-6
6,6,7,17,5,0,-1,-1
5,-4,-2,-8,-5,0,4,1
4,4,-5,3,2,-2,-1,-3
3,0,7,17,-4,-2,0,0
-12,-3,5,-3,8,-1,-1,-3
7,2,-15,-22,-13,-3,-1,0
6,1,-8,-6,7,1,-2,-1
-9,-2,13,-1,-25,-6,-2,-1
0,9,-2,-19,-7,-2,-1,-4
-10,0,-4,23,10,4,5,2
15,-19,-49,-27,-13,-6,-4,8
-16,-4,61,13,-5,-2,-3,-4
10,-3,-16,8,3,0,-1,0
-26,-1,3,4,-15,-5,-2,-8
-7,2,7,19,11,2,-2,-5
4,-6,-25,-15,5,-1,0,0
-1,-4,14,11,-2,-1,0,-3
25,6,-36,-44,1,0,0,5
-17,-8,-20,17,-1,1,-1,-2
4,1,24,-18,-11,-4,-3,-2
17,14,9,11,-1,-2,-3,-1
21,4,6,19,-11,-1,0,10
-14,-10,15,-1,16,4,0,-4
-16,-4,-23,0,5,-1,-4,-4
-19,-4,-9,-29,-14,2,-2,-9
6,-3,7,2,-7,-5,-2,-1
14,16,30,20,10,1,7,18
-6,-5,-23,-35,-21,-8,-1,-2
-5,-4,-13,43,27,0,-2,-6
5,-3,-6,-40,-15,-4,-5,-12
-47,-19,20,17,-8,1,1,-10
49,20,-24,45,15,3,5,18
44,-7,27,-15,-22,-7,-2,2
-44,-23,-26,3,1,-3,-4,-5
3,16,22,-3,-14,-3,-6,-11
-29,14,-8,-61,-35,0,-1,-14
-17,-42,-12,35,31,7,1,-1
55,2,5,35,26,5,1,20
43,1,-37,-87,-33,-12,-2,5
-26,19,6,43,31,6,-2,-15
-43,-28,8,-9,0,3,-1,-2
-62,-9,25,6,0,0,0,-12
-31,-20,-30,25,11,-6,-5,-7
68,18,18,2,23,6,0,1
60,30,-14,4,-22,-6,-4,-32
-27,-2,-14,-29,35,11,13,40
7,-28,32,-6,-41,-16,-6,10
-14,-2,-39,31,34,-3,-10,-15
7,-7,-28,9,-20,-11,11,11
61,40,-33,-42,-3,10,-11,-32
-49,-19,37,-22,-7,-3,-11,-9
60,-90,-11,61,-36,3,4,10
-36,1,9,-94,10,-1,1,32
-8,38,-19,5,-14,-9,3,-20
-81,-39,-21,4,-8,-3,-9,-6
13,4,-3,-68,-15,-1,8,20
-11,27,36,81,27,8,-1,-17
59,-40,-2,-27,5,-7,1,19
50,61,-15,59,4,2,4,-10
-26,-9,9,-17,-2,-4,-6,-20
14,-54,-7,3,-38,6,18,34
-123,4,-1,-12,21,-14,-20,-38
42,46,9,-86,-9,-4,22,6
60,45,32,88,64,11,-15,4
4,82,-9,3,-32,-9,0,29
-14,-36,65,80,-23,11,22,-5
5,6,-59,-70,32,1,-9,32
-10,28,12,-35,-18,6,10,-6
14,-21,-27,22,13,0,-15,-7
2,2,4,-43,-30,-12,-4,5
27,85,-9,-54,-41,-1,-8,-36
-31,-60,15,20,-27,-10,34,18
-28,-25,-45,20,60,22,-9,-2
31,-22,56,36,-1,-11,-17,0
-15,-19,-75,-2,5,2,1,-11
-34,22,-6,-9,-31,-12,-21,-23
37,44,12,-80,-27,-4,22,19
-21,-105,-1,-19,-10,-6,-17,-4
-32,88,70,67,87,13,-8,-4
8,20,35,-26,-28,-7,14,-7
-105,14,-10,53,18,-6,-13,-22
24,-59,-25,7,-36,3,2,11
-89,-55,-47,-26,-55,-21,-14,-23
78,46,49,97,76,31,1,14
-46,-39,62,-33,28,5,31,40
-17,-16,17,-45,-6,-3,-31,-54
64,35,-31,3,31,23,50,17
1,-113,69,-31,3,-7,-29,5
-103,105,-81,50,-2,-23,-31,-21
-108,67,80,-14,4,-2,-14,-7
79,66,84,83,10,-5,6,18
26,-85,-35,-114,-22,11,13,25
44,13,24,-100,-46,-11,-22,-51
-86,55,6,80,60,20,18,-8
18,44,80,110,-9,-1,35,88
-49,69,-1,26,1,-4,-2,-16
27,-10,-13,-16,-37,-25,-12,-7
-2,13,38,55,-9,-1,-4,-29
-43,-49,-17,-65,8,18,-18,-31
52,99,-81,-70,13,-8,4,35
6,-34,84,18,1,11,-4,9
4,6,-16,62,23,-6,23,49
50,-90,-40,-16,-37,3,-2,-9
-128,-63,-35,23,-9,-2,-20,-58
51,-40,-3,-19,3,-7,-8,35
66,47,-93,-57,-17,-8,4,26
-62,15,32,-35,-6,-5,-17,-11
-25,-51,-62,11,-40,-11,-12,-34
72,20,-54,-104,-67,3,1,-13
-128,64,92,39,50,30,29,13
51,-6,-37,13,46,-13,-23,7
-1,83,-8,11,18,1,7,0
24,-102,5,-9,-15,-1,-8,-16
45,-31,-72,-64,-19,-11,-5,-2
42,51,17,55,4,8,-3,-33
-71,13,97,32,-8,8,14,25
39,15,-40,19,44,21,24,37
8,-45,-65,31,-44,-16,-15,-19
-67,21,64,-25,-31,-3,-19,-45
30,11,-64,-31,-20,-18,10,42
45,-31,35,19,9,-2,-1,-25
-8,-8,10,9,-39,-12,-18,7
-85,43,38,-51,23,12,12,16
-102,-22,-57,-4,-1,-18,-23,-32
-128,14,39,-26,-24,-3,-7,-34
64,7,-38,-104,-40,4,-2,-1
40,-12,5,14,-21,-22,14,3
29,37,25,67,38,15,-15,-8
-79,-16,17,-43,-33,-5,2,-19
127,35,-73,-9,20,6,26,33
-99,-46,-14,11,9,-3,-19,40
13,-26,37,26,-13,-6,-29,-54
53,85,-53,-14,34,-1,21,49
-54,-50,18,13,-28,-7,-23,-36
31,-24,-78,-3,-9,2,5,-38
-13,23,-56,-122,-19,-17,15,41
26,-7,0,33,5,6,13,31
-48,85,80,89,43,14,-8,-46
72,-128,-81,12,28,22,31,81
57,80,7,-61,-62,-19,-25,-48
-108,-8,-20,36,59,5,10,-34
107,-63,54,-77,-29,10,29,57
-128,-29,13,101,-37,-30,-24,-26
127,35,4,69,-2,5,18,40
-71,-6,22,-79,-34,-9,-15,-19
-47,-7,-42,115,78,11,-11,-18
16,30,11,-46,-63,-22,-27,-76
-76,-126,102,23,61,28,44,69
68,126,-75,-15,-12,-18,-24,-13
3,0,-18,17,-31,-9,16,58
-37,-34,20,-62,-13,-3,0,-4
44,5,81,87,24,3,-6,-14
-44,-70,-17,-19,-17,-16,-35,-63
-78,-70,-44,-128,-19,-3,-8,-41
120,56,24,46,57,3,-5,60
-125,2,34,63,32,4,-14,-42
89,-14,24,32,6,8,5,15
-61,-62,15,-4,-11,-8,-6,-44
65,-17,-29,28,-38,2,37,66
-84,-20,-46,-120,48,10,-14,-42
93,55,101,73,22,19,2,12
-23,-42,-67,96,-23,-22,-14,-15
77,45,55,-18,29,31,31,16
-8,-62,-38,-33,15,-8,-2,62
-97,60,-94,-16,-19,-4,1,-18
124,53,127,37,-5,2,10,19
-127,-44,2,-73,-57,-30,-45,-45
48,62,5,20,-48,1,-31,-89
-33,6,12,58,-10,11,47,77
-52,22,-7,-50,76,12,30,81
70,56,-11,27,7,-1,-6,-13
-50,3,-53,30,-2,1,6,9
13,28,-14,-49,-39,14,-10,-77
13,-96,49,11,-62,-9,7,33
-93,105,-49,-31,14,-3,-16,-50
17,76,2,-106,4,7,26,-2
-43,-38,100,75,-19,-29,4,85
-19,21,-25,-128,25,12,-9,-15
-73,-128,-43,-96,-37,-11,-31,-50
95,98,57,71,-33,-20,7,-50
59,-128,69,56,98,39,39,102
55,127,72,4,26,-12,4,-13
-111,43,15,21,-12,-5,-41,-42
42,31,-36,-65,-64,-9,-13,-31
36,-66,52,10,0,6,46,47
-100,57,64,-28,-28,-21,-33,-21
51,-38,26,105,60,26,32,-32
-31,28,85,8,-61,-14,-8,58
-89,79,55,66,71,28,-22,-46
101,22,-1,36,10,18,19,-4
-41,61,-46,-41,-20,-20,24,38
53,-128,-65,-51,48,55,-18,-22
-17,76,16,-45,-118,-42,-47,-115
30,41,-70,-69,78,54,68,85
48,43,65,19,69,9,32,57
15,-84,-56,-84,-27,-10,1,30
-44,83,-83,43,32,-28,-35,-64
-85,0,44,-49,-79,-30,-47,-71
112,-39,-48,33,6,20,-21,-41
28,-63,62,-16,18,-11,-3,-9
-54,-66,-40,-102,-57,-14,32,80
112,45,-58,64,50,9,-36,-72
-114,-128,6,-77,-18,5,83,126
-70,93,-22,93,48,-30,-75,-79
13,55,12,-51,-11,9,46,36
31,-85,-67,-80,-64,-25,-50,-60
51,64,87,1,-7,26,47,22
47,39,-29,-51,66,22,57,110
-75,-128,-61,-37,-67,-49,-81,-98
-17,52,-51,-13,77,9,-2,-22
-43,40,-19,-21,-75,-21,-40,-102
52,-26,63,13,41,42,49,48
11,-17,-91,-16,22,-4,-22,-2
-51,63,-52,-8,-15,-6,16,15
70,-57,-1,40,-62,-18,-37,0
-128,13,-10,92,18,4,-21,-42
127,-41,97,-31,48,26,79,105
-110,42,-76,-31,-47,-29,-56,-72
111,-28,41,19,-11,9,33,55
-66,-11,-81,-55,-38,-26,-17,-28
-54,-40,36,91,38,28,-36,-83
105,-51,52,51,-58,10,36,68
-121,4,-87,-38,47,-12,-53,-60
99,35,127,61,-34,-3,66,110
-16,13,-86,-36,2,-15,-40,-29
-38,-121,-26,39,-23,-20,-4,-1
35,42,-29,-21,-64,-5,-11,-61
-86,34,-2,63,23,11,-46,-98
2,-31,-26,2,24,27,85,87
-67,81,84,25,-25,-30,-35,-38
35,76,4,-38,-4,-3,-3,2
17,-19,-41,-5,-50,-27,-2,20
50,-16,24,-5,-33,2,-13,-21
-54,-2,-38,-3,21,-2,-14,-18
-41,0,77,24,35,-22,32,55
8,13,-34,-58,-7,48,29,-23
-48,-45,-57,-18,-23,-23,-20,-33
27,-27,46,-7,10,0,-3,16
32,68,79,50,41,17,-32,-46
-68,-4,-72,-94,-63,-28,23,73
15,51,67,28,73,23,-1,-18
-75,-41,11,-19,-41,-10,9,-1
-24,-37,-27,33,57,25,-8,-10
52,-88,52,-17,6,-45,-28,17
-35,43,5,-8,-26,1,4,-47
89,25,9,-11,12,15,25,33
-124,5,-11,-38,-12,-8,-49,-17
73,15,23,12,-8,-19,2,-42
20,49,53,19,9,0,25,80
-45,-36,-81,17,24,30,38,8
83,11,-25,-16,-22,7,17,38
-59,3,-105,-12,11,-16,-37,-49
8,12,36,-57,-45,-37,-38,-33
-11,15,76,63,53,21,27,22
19,-23,6,4,18,-11,-18,-10
-23,-30,-8,7,6,5,1,3
17,19,38,0,1,5,5,-5
15,-41,-109,-47,-30,-7,-14,9
-58,-14,6,-32,-27,-16,-15,-31
12,28,52,26,38,21,15,13
-13,17,22,41,1,-31,-29,-4
5,2,-17,9,6,7,-18,-11
2,2,39,4,-2,-9,17,13
-50,-20,-62,-20,-15,43,33,-5
17,-9,-54,-7,11,73,18,-15
-6,-4,48,20,11,13,10,-18
23,7,-9,-2,0,3,43,79
0,4,26,-7,-18,-31,-33,-15
-7,-7,-21,6,1,-31,-28,-17
7,14,31,-2,-5,-5,-3,-11
-16,-14,-21,2,3,4,1,-11
-13,-7,-16,7,-9,-13,-5,-1
-4,7,-21,-15,1,0,-3,-7
1,2,27,5,-4,-1,8,14
3,7,8,-4,-1,-5,-6,-12
-4,-16,3,13,-35,-12,-6,4
-13,7,-13,-1,13,12,0,-11
36,11,22,9,-2,-9,3,18
-3,-15,-23,0,8,0,-7,-7
-11,4,25,-12,-20,4,1,-11
3,-3,-5,-8,-23,-7,1,1
-5,2,23,17,3,-22,-4,5
-6,-6,-8,-15,-11,7,-6,-9
-2,22,10,-11,0,6,5,4
4,12,22,2,0,-13,-13,-7
5,-8,20,23,4,0,0,6
0,0,-106,-48,1,14,7,-7
-3,-13,67,24,11,-1,7,5
1,-11,33,28,10,-1,0,1
0,-22,-4,-3,-7,1,3,1
-9,0,-19,-20,-6,-11,-9,-7
-3,10,1,14,8,5,2,-1
0,4,-1,-14,-4,-4,-4,-5
0,2,5,-18,-4,-6,-4,1
3,-2,12,25,5,-1,5,3
-9,-14,-27,-18,-1,-6,-4,-2
-3,-7,64,16,-2,-4,-2,-6
0,-3,-61,40,3,0,-2,1
-6,-17,29,-53,0,-4,-7,-4
1,12,10,-5,0,-1,-3,-2
-3,-3,13,-12,-6,-2,0,1
0,8,33,3,-2,-7,1,1
-4,-14,25,14,-1,-9,-4,-3
0,1,-4,-16,-2,1,2,1
7,8,-4,49,8,4,1,0
-1,-3,-1,25,8,3,-2,-1
2,-9,12,-36,-9,-6,4,2
3,14,98,36,15,0,2,0
-6,-20,-128,-59,-6,-1,-1,-3
-2,13,123,107,-17,-7,-9,-8
4,23,111,97,17,19,5,6
-12,-17,-81,-17,-5,-9,-12,-22
3,-5,50,-28,-7,10,5,20
-17,-16,-75,-71,0,-1,0,-4
-2,-2,2,6,0,-7,1,-3
5,8,53,30,7,-2,3,7
1,14,23,-6,-7,-16,-10,-6
9,-16,-84,-69,-8,-1,0,0
-7,4,-1,8,-1,-5,-10,-10
0,3,-46,-4,0,7,3,-4
-2,-3,40,5,2,3,3,-4
4,17,-29,-13,2,9,6,12
3,8,36,-14,5,1,-6,-4
16,37,74,7,8,3,2,8
-37,-88,-96,-39,-30,-12,-9,-35
-3,0,48,66,15,-4,-10,27
5,-5,-4,-9,-12,20,19,-16
-7,-6,25,12,0,-2,-2,-1
19,38,43,34,16,11,8,7
0,-5,-33,-27,2,-5,-1,-11
-14,-15,-64,-5,-6,-9,-12,-2
3,0,1,-23,-4,7,5,10
1,2,-5,15,1,-1,-1,-5
1,5,-19,-47,-4,-4,-3,-7
4,6,2,45,9,-2,-5,5
-7,-18,-48,-12,-7,-1,-1,-7
8,2,-34,4,4,-5,-7,11
-10,1,-27,-22,-6,-2,1,-5
4,7,-11,11,10,5,4,4
1,2,-23,-21,2,1,-1,2
-3,-1,63,51,-2,-13,-11,-10
0,-9,-5,-29,-11,11,13,4
-4,-13,21,4,-2,-6,-7,-3
-6,-12,-19,7,-4,-18,-3,-3
