4,-4,5,9,11,-1,0,4
-14,-2,-5,-18,-11,-5,-4,-4
-2,11,-3,-1,7,1,3,-5
-13,-32,0,1,-3,3,-1,-1
-1,14,17,8,1,-1,-1,-3
4,4,-7,-13,-4,-2,-1,-1
-11,-14,0,9,-6,-5,-3,-3
-15,11,7,-12,0,-2,-4,-12
10,-5,-8,1,0,2,3,2
6,-3,2,1,-2,-5,-3,2
-5,3,4,5,5,-2,-1,-2
7,11,14,-6,2,2,1,3
-7,-1,-37,-39,-7,-2,-4,-5
4,6,25,42,-6,-3,1,1
2,-3,2,-4,16,2,4,1
-8,-6,19,-1,1,0,1,-1
6,-3,-15,1,-11,-6,-4,-8
16,-7,1,-4,5,6,7,8
7,5,0,1,-13,-5,-7,0
0,-1,-9,2,11,7,0,0
-3,16,10,-9,-5,3,-2,-7
-13,-12,-1,2,-1,1,1,5
6,12,6,-1,-2,0,0,1
-9,-16,-17,-5,-11,-6,0,-3
-10,-1,18,0,3,-1,-4,-9
16,11,-2,-9,-7,-6,2,3
7,-14,-8,6,0,-2,1,4
12,8,-4,-5,6,0,0,1
-8,-6,-12,15,-4,-1,-1,2
-9,7,0,-23,0,0,-4,-8
3,-17,6,15,10,-1,-1,2
1,11,-14,-4,-9,-5,-4,-4
9,-1,-5,-5,-2,0,2,6
-16,4,8,-20,-23,-1,-5,-9
-3,2,-3,28,26,8,2,-4
9,-15,-34,2,3,1,5,6
-20,-23,-4,-3,0,-4,1,4
0,13,22,5,-12,-11,-7,-7
-8,11,26,-10,-22,-4,-3,-2
1,1,13,-2,6,-3,-3,-4
-16,-2,-1,9,3,4,1,-4
-12,-4,-18,20,25,5,-3,-10
51,-4,1,-21,4,5,11,26
27,-5,6,-4,-9,-14,-7,-2
-13,19,11,7,-10,-4,-1,3
-2,2,-2,-10,-8,-5,-4,0
-19,0,-8,1,6,1,-7,-13
-6,7,10,1,-2,3,2,0
9,-27,-16,-1,3,-2,0,-1
19,23,4,0,4,4,2,-2
-22,-13,11,-5,5,-2,-3,-3
-5,-7,-19,-10,-12,-1,-2,0
-12,1,21,-5,-18,1,-4,-9
20,0,-31,25,21,4,-2,-2
24,-12,7,32,3,-1,0,10
-29,-12,-35,-10,-4,-7,-6,-6
12,27,8,-5,-3,-4,-4,-3
-14,-11,6,-8,7,-2,2,0
-14,6,-29,-26,-2,0,-2,-8
22,15,20,30,0,5,4,6
-10,-5,8,-12,-5,0,1,-3
0,-8,-2,5,13,2,0,-2
-22,-1,-2,3,-8,-2,0,-12
17,12,22,-14,-9,-4,-3,-4
-11,-15,-34,10,1,3,2,6
1,-17,30,11,9,-2,0,9
-6,10,-13,-25,-11,-5,-3,-3
-15,1,14,5,5,1,-1,-5
12,5,-11,-12,-1,-1,-3,-5
1,-12,-7,20,4,3,-3,0
6,8,-5,9,0,3,0,1
-17,9,-6,-43,-29,-8,-1,-3
22,-10,13,35,14,-7,-3,6
-21,0,-48,-45,-26,-10,-4,-6
6,-21,21,41,20,8,2,-4
-10,1,-40,-6,-8,-3,-1,-2
-9,-16,3,-6,5,2,1,8
24,25,32,-19,-16,-7,-4,3
-5,39,21,-4,-17,-7,-2,-9
-19,-11,-1,6,5,5,2,-9
6,-23,-25,-13,1,-2,-3,-2
6,7,10,5,-8,1,0,-1
-10,7,-21,-18,-20,-5,-1,3
-6,-30,11,18,16,-1,-3,4
23,16,-5,-16,8,3,-2,-5
-49,27,30,4,-5,-2,-8,-11
20,-24,-7,7,-1,1,0,5
18,-1,-30,-58,-34,-3,-3,0
18,43,16,60,47,9,4,5
-18,-74,-53,-17,-33,-14,-4,-5
-40,6,1,-17,14,1,-6,-17
26,-5,18,27,13,4,8,18
3,-14,-20,-39,-26,-10,-2,-5
22,30,28,12,16,4,1,1
10,44,38,-22,-14,-8,-3,-2
21,-51,-15,19,-3,-5,-4,-2
-73,-26,-15,1,17,10,7,-4
12,-38,-98,3,2,-2,-5,1
-2,14,11,-1,-2,-2,-6,-8
5,15,56,53,21,8,1,5
15,-18,-68,-50,-17,-8,-3,-3
-74,-52,-47,-25,-18,-6,-7,-20
58,26,47,-3,-5,5,8,25
-7,6,-15,18,31,4,2,9
-15,85,127,40,-11,-5,-1,1
-12,-46,-64,-24,-2,-6,-4,-12
-19,-49,-89,-35,-12,-1,-2,-10
22,47,67,-2,-7,-1,-1,2
-7,-13,15,31,25,8,2,4
4,18,59,46,27,6,6,9
-16,-1,-18,-11,-1,-6,-3,-4
-37,-9,-8,-23,-13,-2,-9,-17
24,-52,-37,-18,-24,-10,-5,-2
42,4,5,-12,9,4,11,17
-8,35,39,16,8,-5,-8,2
31,32,-47,-7,-18,-3,2,-3
11,31,110,34,3,1,-4,-6
-17,-27,-17,0,2,5,2,-4
-15,-57,-56,-11,-18,-9,8,3
-1,96,46,-13,10,5,-1,-8
31,-37,-15,3,-9,-1,-5,17
20,23,-68,-23,0,1,-2,5
-15,-25,29,-17,-8,-3,-4,-9
-8,-45,-16,30,28,5,0,-12
-2,-21,-46,31,27,-1,9,14
20,22,74,-4,-14,-4,-7,-9
-16,-34,-30,29,50,13,2,1
-20,-6,-23,-25,-26,-8,-6,-15
10,-11,-105,-47,-33,-9,-6,-2
-48,-38,17,12,6,6,-2,-9
97,31,49,28,-4,-4,4,14
-33,-18,38,9,-2,4,4,3
-55,-76,-52,-24,-14,-13,-9,-25
21,38,13,-8,-17,-2,-1,3
6,8,-32,15,12,3,-1,11
-36,-68,-55,-25,-18,-9,-3,-2
54,101,-1,-7,-6,1,2,1
-33,-12,-30,-29,-10,-7,2,-7
-54,-75,54,90,22,4,-7,-9
35,18,-7,-74,25,6,3,13
9,-35,-41,-36,-19,-1,0,2
24,64,82,16,16,10,6,2
74,-42,-91,-12,-33,-7,0,2
-118,-5,1,-12,-9,1,-2,-7
-5,2,92,38,39,-2,-9,-12
12,-16,-35,10,-1,6,-1,4
-24,11,46,-5,-2,-2,-2,-5
47,47,-92,25,3,0,-29,0
-53,-15,8,-67,-34,-9,33,-12
3,13,84,55,15,-1,-3,11
0,-27,-98,-38,-11,-2,2,4
45,23,96,9,0,-6,-2,-7
-7,-64,-45,12,11,10,-6,0
21,95,80,-6,-30,-9,-3,4
-15,0,-87,18,-9,6,9,9
11,-18,112,35,46,6,2,10
-23,30,0,-11,-34,-9,-12,-8
35,13,22,40,10,9,2,-4
13,34,8,-79,-4,7,5,14
-36,12,90,27,-19,-15,-2,-11
40,-45,-27,-5,-4,-4,-9,11
-44,-5,-34,24,21,-1,-4,-2
6,71,-52,-37,-6,0,-2,-9
-37,-44,19,-5,-11,4,12,-6
-8,40,41,44,13,1,-3,10
20,2,-45,-43,-28,-15,-11,2
-15,-43,-54,24,9,3,-6,-15
0,30,69,4,-5,-6,5,3
13,13,-7,-11,-8,11,6,5
2,9,-93,-14,20,5,2,8
-2,74,127,12,-19,-7,-9,-13
-29,-89,-128,-2,19,7,5,3
14,73,92,5,-13,-5,0,5
26,-31,6,6,23,6,12,1
-44,-43,-12,-11,-15,-7,-4,-9
62,65,38,-12,-36,-16,-12,-7
-37,-67,13,-2,6,6,-2,1
23,68,57,-6,14,3,-5,1
6,1,-17,3,8,0,3,8
-21,41,5,-36,-50,-21,-17,-8
10,17,-21,-2,5,4,-5,-10
-12,-77,-35,-6,-3,4,7,15
-5,-20,-20,8,10,2,5,-8
50,-14,-18,-4,1,2,3,8
-24,40,8,7,16,7,5,-9
-11,-79,10,-21,-29,-16,-13,1
-9,50,24,16,-1,-4,5,3
27,-24,-41,-9,16,8,-2,-1
27,-43,-50,-40,-18,-9,-5,0
-23,63,76,37,23,2,1,-8
-15,40,-4,34,0,-3,-4,-1
-15,-4,-42,19,-2,-2,-4,-5
54,8,-25,-18,-5,3,-3,-8
-29,-36,-56,-48,2,-3,1,2
-14,9,106,62,0,-4,-5,-18
-18,-44,-45,0,6,-4,6,8
-26,-10,-53,-50,-20,3,6,-1
-9,-64,0,67,10,1,9,14
-12,52,64,-37,14,3,-11,-9
18,57,102,25,-8,-5,-22,-7
-2,42,45,53,14,-4,4,-17
21,-12,-50,11,8,8,27,25
-5,22,-39,-110,-10,-1,3,14
-21,8,-4,41,-4,-3,3,-15
-13,-75,-55,-15,3,5,-11,-1
4,126,-12,-27,-26,-8,-8,-8
49,-10,63,68,10,2,-1,3
-45,-66,-128,-114,-30,-8,-4,-12
36,15,47,48,31,8,0,16
-23,-73,-30,9,19,5,0,-14
-18,-79,-97,-4,-14,-7,-10,-1
-2,-75,-25,-6,10,5,2,0
-5,19,-3,50,1,-4,-8,1
39,-13,-75,-107,-54,-14,-4,-11
-58,-81,43,39,16,-1,-4,-1
26,17,-45,20,3,-7,-39,-3
-22,19,18,-18,-3,1,-6,-6
52,34,32,31,8,10,41,7
-49,-1,-32,-50,-22,5,18,-3
66,25,29,1,9,1,6,5
-55,-35,39,51,21,1,-15,5
13,49,-14,-22,2,-8,-111,-33
7,-77,59,-14,-11,-1,102,16
-23,2,67,65,26,7,3,2
0,33,-2,-44,-34,-14,-10,-3
-27,-37,-3,-23,-3,8,0,-3
44,23,19,49,6,-10,-23,-9
-41,50,2,-5,20,4,-8,-5
48,-51,32,34,25,1,29,16
-64,-15,-38,-77,-28,-4,-10,-14
15,-47,-6,21,39,3,-30,-10
-21,-26,-49,-15,-4,7,24,9
12,117,81,36,3,7,-3,-1
-32,-26,34,4,-35,-14,15,1
-2,85,-34,1,-3,-4,-15,-2
12,52,120,28,-4,-2,-42,3
-26,-37,-60,-14,4,5,56,3
37,28,33,67,25,8,38,7
-29,-45,-95,-68,-13,11,-10,-4
41,17,21,1,1,-4,1,14
-62,-37,-57,-45,-22,-18,-38,-22
42,93,119,54,14,1,-12,-10
2,6,41,-31,-7,-5,-3,-7
-32,-42,-38,-6,-13,-2,19,4
14,22,-70,-78,-54,-11,-4,7
8,-15,-17,23,54,16,8,-4
26,56,25,46,21,9,-39,0
15,77,86,-17,-18,-4,28,5
-67,-30,-58,-98,-41,-10,16,-13
-22,20,35,-2,-19,-12,1,-3
9,62,83,-6,-14,-6,6,-11
31,-31,-40,3,14,4,-16,-6
16,57,75,69,30,6,-53,-12
-19,-86,111,-48,-37,-15,48,9
-16,-8,29,14,13,3,-16,-4
16,86,63,-10,-1,-3,5,-14
-30,-53,83,45,11,-1,-9,4
-3,-91,-92,-53,-15,6,-1,-5
24,86,-24,5,-6,-10,-4,13
-60,-111,76,-20,-15,-5,-3,3
25,65,61,125,47,7,-22,-5
58,-5,-109,-81,-23,-11,26,7
12,61,49,27,-14,3,-13,-4
-70,14,-32,-2,-26,-11,23,-12
77,82,-10,13,25,0,4,31
-5,29,55,71,21,10,-22,-14
14,-27,-27,-52,-25,-21,-30,2
1,43,-17,-28,13,16,8,10
28,61,-4,-41,-33,-16,31,-1
-13,52,-56,57,14,1,-36,-2
1,-64,-66,-24,-7,3,34,3
75,87,61,22,8,13,-10,1
-64,-57,-107,-42,-3,-2,34,13
-23,-21,-19,14,11,10,-16,-10
-4,-30,-72,-8,-14,-15,-3,1
30,38,-45,14,22,11,25,14
-39,-83,37,-4,-11,-3,-20,-18
-25,-38,-3,72,-2,-13,3,-4
-40,-77,-86,-64,-2,1,-21,-8
18,-76,10,5,3,-7,-10,-1
-3,-9,-8,-27,-2,-1,-1,-10
-11,55,80,24,0,3,-18,8
-10,-24,-55,-68,-42,-3,59,4
-9,-46,-119,-24,-2,4,-3,-15
63,39,0,57,62,16,-1,24
17,-12,59,24,-7,-12,-18,12
9,23,92,17,20,-1,-3,-10
3,80,89,-1,-27,-5,-6,-2
-17,-24,-25,-30,-34,-19,-23,-17
0,-14,-100,-32,19,13,31,15
46,110,-2,37,10,9,-1,21
-55,17,34,64,12,0,-27,-21
50,-54,44,19,9,12,60,41
-31,-23,-103,-77,-39,-25,-23,-18
-14,20,4,32,7,6,-6,3
-17,-53,30,13,21,-9,-35,-18
0,-15,-79,3,-9,-15,-14,-2
13,-1,-4,-61,-14,-7,24,0
-11,-61,36,11,-10,-8,-9,-8
-56,-68,-122,-16,-3,0,20,1
10,-39,65,56,10,3,-23,-30
-62,-1,-50,-93,-9,10,-1,13
13,63,103,46,-1,-1,-4,-10
42,43,-34,-30,8,10,25,12
39,80,72,-15,-13,-1,-6,-2
-23,-6,119,15,-11,-14,-16,-8
-14,-1,-69,9,4,1,1,-3
5,-50,-1,-1,3,-3,-2,4
-27,-45,-66,-63,-14,0,-6,-15
20,93,95,39,9,0,-2,-7
62,25,51,17,17,10,-11,-7
-46,-32,-30,-27,-40,-21,29,20
-21,-43,-93,-22,28,2,-22,-9
18,-86,0,-77,-13,4,27,0
-60,-66,-87,17,8,-5,-13,-11
32,-25,-78,-29,3,11,-3,-1
0,88,80,9,-4,8,16,-4
-1,-6,-15,38,3,-10,-45,4
7,-1,-5,7,5,-1,5,3
6,-13,20,-11,-6,-1,3,-3
-41,44,21,14,-2,3,7,2
29,-17,-24,-5,-3,1,2,-10
4,-17,-63,-44,-17,-10,-22,-11
-18,-18,-24,26,3,-3,4,8
-2,32,18,-1,-11,-2,-2,-14
38,0,21,43,7,8,4,5
-27,-27,-57,-28,0,-6,-2,1
11,24,21,7,17,6,-7,-7
17,-1,-7,-18,-11,-4,14,10
-23,-5,-30,14,-6,-5,0,-10
-18,-41,30,-34,-26,1,10,7
14,32,2,23,29,-3,-5,-8
-3,14,16,3,2,-3,-11,2
-7,11,-6,22,-3,-3,1,5
19,20,28,-7,2,0,4,4
-3,-3,6,3,0,-6,-7,0
-6,-27,14,-5,0,3,-6,-5
5,26,7,29,9,1,1,3
-15,-5,1,-7,-5,3,7,-4
14,37,60,0,-13,-1,-6,2
-10,-20,-38,-5,-4,-3,5,15
2,13,-11,-12,-2,-9,-6,-25
0,26,41,30,10,-2,-4,-5
-3,-15,-19,-4,-2,7,2,-3
4,-9,-33,-36,3,21,5,-5
-10,5,33,15,-1,11,18,9
2,-11,12,10,1,-4,1,8
6,-8,-18,10,-8,-13,-4,0
4,20,97,23,2,-4,-9,-3
-4,-3,-68,-19,8,-1,-8,0
-3,-22,-46,-44,-10,-5,-3,-3
6,8,25,41,-5,-5,-3,0
-6,3,-65,-31,-11,-9,-5,-2
1,14,96,68,17,1,1,1
1,1,-67,-54,0,-2,0,-2
1,12,12,1,-1,3,1,-12
0,-27,-83,-31,-10,-9,-5,9
13,25,116,46,2,0,-2,7
-22,-9,30,14,3,0,-6,-10
9,27,89,50,2,1,2,6
-5,-3,-9,-59,-1,0,1,-14
-1,-4,53,4,-11,-6,-4,6
10,10,9,63,10,5,0,3
1,-11,-109,-30,1,3,8,18
-13,-11,83,-7,-12,-11,-5,-9
-4,4,-28,-22,-3,-10,-13,-19
17,35,121,15,11,7,4,-11
-8,-34,-92,-50,-1,3,2,3
-5,-29,-16,20,-6,-4,-3,-16
13,1,-44,-39,3,9,11,39
-5,13,42,50,3,-4,-1,2
10,24,33,-12,-2,-1,1,2
-29,-68,-78,-50,-18,-11,-6,-12
-11,0,56,43,-1,-5,-3,-13
8,1,65,28,12,6,5,10
-16,-26,-92,-26,-8,-5,-9,-14
8,19,17,34,6,3,2,5
-3,5,-9,15,-1,1,-2,-6
3,6,16,-37,-8,-2,-3,8
-10,-33,-39,-33,-13,-4,-5,-7
5,16,78,83,7,1,-2,0
1,-11,-89,-51,-1,2,2,-3
0,13,30,17,-2,-2,0,1
-2,-4,77,-5,-6,-7,-3,-3
3,11,-11,22,8,3,3,3
-6,-9,-48,-55,-5,-1,-2,-4
-5,-10,-61,-42,-3,-3,-3,0
0,-6,73,8,-6,-2,-1,0
5,10,37,-2,0,1,3,5
-5,3,53,29,4,-4,-5,-5
-3,-9,-62,-6,-1,-2,-2,-4
-1,1,10,7,4,0,-2,-1
11,24,27,-1,5,5,3,5
-1,-6,45,-20,-8,-1,-2,-1
-2,2,39,38,-1,-3,-4,-1
-7,-5,-68,-13,-9,-4,-1,-2
6,11,0,10,-2,-1,-1,1
0,2,11,8,1,3,-2,-3
0,-7,-2,32,40,10,2,0
2,1,13,4,3,-2,1,2
-2,-5,-10,-4,-1,-4,-2,-1
-1,0,-38,-19,-9,-1,1,-2
2,2,34,-5,-13,-1,1,-1
1,1,6,-4,-6,2,0,-3
