-1,1,-16,-17,-17,-4,-2,1
-5,-18,-21,-4,-3,-1,-1,-2
2,6,-4,-11,-15,-2,0,-2
1,-2,4,0,18,2,0,-1
0,-4,-12,-3,-14,-1,-1,0
-5,-2,25,20,25,5,0,-1
3,0,-2,-4,-5,-7,-1,-2
-4,-5,-27,3,-1,1,0,-4
2,0,-6,-10,-3,-3,1,-3
0,-1,-2,-9,-14,-5,-1,-2
-1,4,18,7,-7,-5,-2,1
-2,-2,-11,-19,-6,-3,-3,-1
-1,-7,-1,11,13,1,-1,2
1,10,-6,7,-7,-1,0,-1
0,3,-3,-18,-2,-2,-2,-1
-2,-9,24,24,-1,-1,-2,-1
3,7,-5,-14,-5,0,-1,-1
1,0,14,1,1,1,-2,-2
-2,-7,-26,9,2,2,-2,-1
-3,-7,-3,-12,-18,-3,-1,-1
-5,6,8,-3,21,1,-1,-2
4,-7,-9,8,-7,0,1,1
7,7,29,21,11,-1,-1,0
-6,-2,-11,-7,5,3,1,-1
0,-3,-3,4,10,-2,-1,-2
-4,-6,-7,-9,2,-3,-3,-1
-2,-13,-20,-2,-15,0,-2,-2
7,4,12,7,19,4,1,-1
-10,-10,20,-2,-7,-2,0,0
-1,-6,-22,-4,-5,-6,-1,0
7,3,4,-15,-8,-2,-1,0
-4,-1,0,-1,-6,-2,-2,-3
0,6,2,3,-7,-3,0,-4
-1,3,5,-15,-8,0,-1,-2
-7,-4,-3,9,2,0,-3,-2
-1,-4,-7,17,11,1,-2,1
4,7,-10,-14,-14,-5,-2,0
1,9,9,12,-14,-8,-3,-1
-9,-23,-20,-9,13,8,2,-1
0,17,6,-22,-9,-1,1,1
1,-5,-1,5,-14,-6,-1,0
-1,-4,-14,-30,-23,-8,-5,-3
1,0,7,36,38,2,-1,-2
-7,5,-1,-4,-5,-4,-1,-4
6,-6,-3,0,-1,4,3,3
1,-8,22,-19,-14,-1,1,3
-11,12,-14,-4,-12,-6,-3,-3
10,-4,-19,2,3,0,-2,-3
41,50,16,7,7,7,0,-2
-66,-55,4,24,22,9,6,10
-5,-20,23,-45,-21,-12,-9,-10
-9,26,13,22,-2,-6,-4,-3
105,64,-18,9,-3,-2,-1,7
-36,13,31,-4,16,7,2,-1
-15,-57,1,0,3,3,2,2
-24,11,-9,-3,-7,-2,-5,-7
-38,-42,23,-5,5,2,0,-3
82,55,-38,3,3,-7,-5,0
-34,6,10,0,-6,2,-1,-2
33,6,15,-2,1,13,12,7
32,-12,-3,8,1,2,4,6
-85,-51,-27,-34,-26,-22,-30,-23
23,8,-15,-2,-5,-9,-5,0
106,70,-1,-13,-38,-9,4,10
-128,-101,12,30,67,28,12,-9
127,108,5,21,10,4,0,1
-39,-94,-6,3,-12,-7,-10,-3
-17,69,-43,-15,28,5,-7,1
-9,-83,-9,-54,-83,-32,-10,-8
-13,-91,-61,-37,-17,-7,2,0
16,107,43,31,-23,-1,-13,-27
-71,-24,11,8,33,15,18,6
75,4,48,50,-9,-6,3,24
-94,42,21,-36,0,4,-2,-32
127,-25,31,-9,5,3,11,32
-56,2,-1,-36,-11,0,0,-24
-66,-56,-46,-1,-19,-8,-33,-61
98,49,60,63,7,-11,13,68
-85,70,-28,12,30,15,13,-21
50,-101,-46,88,-17,-13,2,32
-40,25,-1,-77,14,1,-19,-16
-24,-46,-4,-22,-38,-4,-17,-46
-48,29,-19,-29,-47,-13,-14,-15
80,11,28,-5,14,6,22,35
-64,-78,-84,-47,-62,-12,-1,-12
28,90,22,65,79,17,20,3
-58,0,16,-72,-33,-9,-14,20
27,-11,29,-11,-40,-9,-8,-43
107,127,25,22,-41,-5,9,30
60,-128,16,28,60,26,36,2
-32,40,-32,22,70,14,11,81
-52,-3,27,-6,9,-3,-35,-11
-112,97,-23,-26,3,-9,-19,-27
-36,27,6,24,25,-4,-10,5
127,3,2,-20,-28,-1,-17,-41
-58,-15,2,-3,-15,-3,16,22
105,-61,57,-31,50,31,28,21
-120,20,-82,9,-29,-27,-29,-15
83,10,8,47,7,1,34,47
64,-63,-22,-104,-34,-15,-29,-2
-67,56,-1,11,-25,-15,-19,-53
127,95,44,49,-48,16,30,51
-82,-15,-24,-6,45,-2,-45,-58
72,54,-4,-47,-23,-3,4,-31
45,-90,-5,-6,62,19,38,79
-47,76,-26,-90,-27,-19,10,23
38,14,84,52,-14,5,25,-29
6,-25,-77,22,-3,-9,-12,0
-62,50,57,39,21,8,-5,-57
21,-112,-13,-13,7,7,8,60
10,126,-51,-78,-48,-22,-6,-31
5,-59,39,101,95,25,23,43
-53,120,29,-89,-7,-25,-48,-65
-102,-113,5,83,26,20,26,51
-89,54,-58,23,20,4,26,19
-29,-55,23,26,-17,6,4,-41
96,77,15,-45,-81,-33,-17,39
-67,15,-39,-7,62,12,-24,-33
95,-13,-20,-128,-45,-4,-32,-39
-128,9,-1,64,31,5,29,84
15,-26,20,127,61,2,-4,-13
-8,32,51,-103,-45,-5,-28,-109
96,-84,52,37,1,8,11,65
84,47,-28,27,7,4,24,17
10,-38,5,13,-2,17,28,77
-96,127,7,35,-20,-31,-47,-85
23,-110,-83,-19,85,44,60,41
-78,6,3,-63,-85,-45,-77,-65
15,-72,6,111,79,36,72,89
73,71,-10,-45,-33,-10,-8,-9
47,-23,37,-14,-14,-2,22,10
-15,93,-50,-65,-36,-21,-47,-53
-17,-9,-16,-31,37,22,14,-15
32,76,-18,-22,-24,0,11,-9
-62,-94,75,127,24,3,-27,-19
-13,5,13,-32,4,3,33,56
53,93,7,-88,-72,-24,-48,-46
-77,-87,-24,-6,17,21,18,24
26,47,66,5,-13,-16,-9,-27
66,47,16,-44,-12,8,-3,-5
-83,29,-36,-15,14,-11,-44,-73
127,-102,-72,57,-14,-17,23,55
5,84,53,14,-31,-7,-20,-42
-44,-113,84,70,-17,7,23,8
89,44,-61,-31,4,7,17,-14
127,-49,-24,-123,4,17,15,49
-85,90,-114,68,15,-20,-38,-2
42,100,80,51,65,31,21,3
-52,-106,-12,-45,-47,-10,-19,-67
21,16,27,53,49,23,32,44
29,22,27,-58,-25,0,-2,1
-83,-19,-2,-63,-28,-2,1,-12
-16,55,-88,-7,-15,22,5,-27
-54,-46,34,-60,-98,-44,-2,24
-99,-32,-35,52,72,-5,-54,-71
-17,-79,-50,-35,-30,-20,22,74
20,13,75,39,25,23,5,-26
-87,-57,-51,33,-41,-39,-57,-60
10,-54,-85,-128,-80,-21,0,18
-35,66,72,91,82,8,-3,-118
-108,-29,-66,-34,-45,-29,32,115
95,-26,127,-16,49,64,41,56
-100,1,-27,38,-70,-47,-36,-55
-7,16,-72,-22,108,42,-12,-42
112,-114,22,27,-76,-17,50,108
24,122,63,-23,2,-1,-31,-75
-48,-107,62,-34,6,22,29,32
-24,53,-84,-24,-45,-14,-40,-74
59,-73,0,91,68,-1,22,58
-56,-10,-92,-5,-64,-26,-24,-37
0,-84,127,9,79,52,46,19
-71,-20,17,2,12,-21,-25,19
-24,57,10,-13,-76,-20,-14,-12
-6,65,79,114,105,33,11,-22
15,99,81,-48,-42,0,-8,-23
47,-59,-15,79,-53,-14,8,39
-86,-20,37,-9,19,-19,-27,4
-53,43,-85,-128,-102,-42,6,-27
32,119,13,80,97,8,-40,-16
45,-128,-23,-84,-8,24,45,52
-7,-60,92,127,47,10,-12,-12
65,31,-1,-114,-117,-20,-2,-6
45,-95,-1,-15,69,20,3,-17
-27,-8,93,57,-58,-3,17,28
-39,41,33,-116,-13,-15,-38,-37
-57,29,-90,127,69,7,10,-10
22,47,-3,16,-95,-37,4,74
84,-59,23,-91,71,37,-1,-20
-78,53,-15,-42,-33,-11,-41,-88
58,-76,9,-88,15,-3,24,54
52,-25,60,67,19,28,2,15
27,83,-89,-13,-13,-22,19,38
-51,44,-35,-60,20,11,-23,-58
2,-110,-9,-64,-21,-5,17,11
-50,53,21,70,-31,5,41,51
88,-30,-16,-22,24,-9,-43,-42
-9,-59,-82,127,11,9,4,-16
10,-122,70,0,0,-3,-7,48
-117,66,-64,5,-1,-33,-45,-60
41,44,104,25,-63,-19,-27,-25
127,-66,5,-73,-28,18,34,30
-28,83,51,58,98,6,-41,-24
77,17,-46,-121,-100,-15,43,27
-28,96,4,34,31,-15,-30,-13
-28,-13,29,-71,-8,-6,24,8
-69,-84,-33,30,-68,-7,-38,12
127,-31,-3,-79,21,25,12,19
-128,93,-23,75,18,-23,14,37
-22,-41,5,72,44,2,-13,-22
66,120,121,57,38,16,3,-22
-59,-28,-107,-52,-98,-42,-46,-41
-53,6,122,70,42,-2,-14,-39
111,38,102,-68,-41,17,35,106
-40,20,-55,-2,45,-2,-12,-30
-14,-27,-34,-88,-80,-30,2,-22
-3,13,15,52,75,46,11,-61
-18,106,-28,-17,25,2,5,43
70,-109,58,26,16,25,30,41
-56,48,-55,-78,-36,-30,-31,-4
-2,-23,29,-83,-21,-11,10,27
-7,41,2,101,116,17,-29,-53
-69,-54,7,-79,-34,-11,11,10
-87,-55,-38,76,76,21,17,6
45,-7,-15,-42,-74,-7,-14,-2
-18,27,31,46,-10,7,6,-25
-39,29,-46,44,-9,-19,-24,-23
68,30,11,43,18,-2,-5,40
-56,-10,-43,-114,-81,-13,-15,-48
58,-29,-45,70,-32,-20,19,34
-37,127,84,-29,-113,-24,-19,0
-15,-94,-27,-55,47,29,13,-43
30,29,-89,-36,7,20,17,22
31,-52,-34,-54,-32,-11,-17,-11
-2,-43,-22,-54,-52,-14,-31,-18
49,59,96,104,97,33,34,33
-85,-33,100,6,-22,-13,-12,13
-33,-14,-112,-128,-38,-70,-49,-18
-30,-45,-13,28,33,58,46,-26
-31,-49,122,44,34,37,23,9
35,-12,-70,-4,-24,-29,9,13
62,39,68,11,-7,-14,-6,12
-33,-22,-113,17,37,-12,-9,-35
-38,-66,-30,-15,-20,58,31,9
119,6,11,-32,-11,9,6,29
-88,-3,-39,2,-17,-24,-24,-16
31,-2,14,1,22,7,1,-12
-7,-34,-21,-25,-15,-13,18,1
28,5,-1,-68,-24,1,-6,-1
-7,11,32,57,34,31,19,9
29,31,68,19,12,-11,-2,6
-10,8,-68,-10,-16,-73,-47,-7
-25,-48,-14,0,-5,-33,-33,-14
-27,-4,40,-22,-22,40,36,0
45,31,25,-3,1,-11,8,19
-13,-10,11,4,-7,43,24,-4
6,18,-9,0,-5,-28,-21,-2
-24,-51,-16,-13,8,33,5,-3
2,30,14,13,11,-3,-9,1
12,35,-16,-20,-8,-38,-22,-7
-6,-23,7,19,-3,-13,-2,1
-18,14,21,-16,-6,2,1,-3
-11,-30,-46,4,3,0,-5,-9
19,18,60,12,0,-19,-7,-1
-15,-11,-17,7,4,22,18,3
-4,-11,-37,-12,-4,-11,-5,1
6,6,7,-14,-7,-2,1,-1
7,10,5,1,-7,-6,-1,0
-5,10,-1,15,11,22,7,8
-2,-1,-10,-20,-4,0,9,-4
8,-3,-2,-8,-3,-3,-8,1
-8,1,6,0,0,5,3,0
1,-3,8,4,4,7,5,2
12,15,19,5,-4,-12,-8,-1
-9,-11,-6,4,3,4,0,-1
0,-2,-8,-6,-10,-9,-5,-3
-10,-15,-20,2,-7,2,4,-6
16,12,-5,-20,17,8,3,7
1,8,9,4,1,3,3,1
0,-4,-5,-7,5,0,-1,-1
-20,-7,38,-17,-60,-12,-3,-9
-1,-7,-18,60,84,18,8,-1
13,-14,0,-6,-1,-3,0,8
5,11,-7,-7,-8,-6,-1,-2
10,5,-18,0,4,8,6,5
-20,-1,47,-5,-33,-12,-8,-10
-5,-2,9,-8,-2,0,-2,-5
12,4,10,0,5,3,-1,3
-11,-14,-1,7,9,2,3,-4
1,16,7,-10,-26,-10,-3,-1
2,9,8,3,13,4,0,-2
0,11,52,22,-4,-5,-4,-1
3,10,2,2,11,3,0,4
-2,-23,-48,-10,-13,-7,-4,-2
-2,10,-26,-22,-6,3,1,-1
-8,5,-18,7,1,-2,2,-2
5,-8,2,3,12,-2,-1,2
5,16,1,-8,-9,-6,-3,0
-12,-15,-6,0,-10,-5,-3,-6
2,2,-4,4,5,4,1,-2
4,3,17,7,7,1,1,2
2,-4,-58,-31,-17,-2,1,4
-5,-3,15,5,-3,-9,-4,-3
-5,-14,6,0,4,-5,0,-4
7,7,42,29,10,8,7,4
-9,-18,-54,-39,-10,-3,-3,-7
-3,-16,-43,-1,-1,0,-1,-1
-2,-4,34,-16,-13,-6,-5,-3
-7,-25,-34,13,-4,-5,-4,-4
5,13,67,3,-20,2,-1,3
-1,1,5,35,38,6,1,0
0,-3,-15,-7,-2,-1,1,1
0,8,-7,0,3,-1,1,1
0,-5,-4,-14,-6,-4,1,1
-2,-3,-8,-15,-14,0,-1,-3
-3,-4,12,16,-3,0,-1,-1
-1,-6,-21,-14,4,2,-2,-3
-3,-10,21,22,2,-6,-3,0
2,9,15,-21,-3,0,-3,0
-1,0,-68,-30,5,6,1,-2
3,-2,13,-3,-1,5,5,1
-2,0,13,4,0,-3,-4,-2
4,18,55,24,4,7,5,1
-3,-14,33,-15,-14,-15,-10,5
1,1,-37,-11,3,2,2,-9
-5,-1,-70,2,8,12,9,1
-1,1,46,-14,-10,-5,-5,-1
4,16,34,4,3,-3,-6,-2
-8,-8,-61,-16,-9,-12,-6,-3
-1,-11,21,11,6,-1,0,-15
5,18,46,8,-6,-2,4,21
-3,-6,-75,-9,1,1,0,-3
1,4,4,5,8,-1,0,1
-7,-5,43,96,0,-11,-16,18
7,-8,-31,-83,-9,15,14,-39
8,18,127,39,9,18,7,-3
1,0,-87,24,3,0,3,3
-1,-11,38,-78,-4,-4,-1,-6
-11,-1,31,85,-3,-19,-16,-2
-4,-27,-106,-22,-13,-5,-1,4
7,28,119,25,10,7,0,-10
-4,-16,-69,-1,2,-2,-3,6
-2,-15,-69,-72,-6,-23,-10,3
-19,6,40,32,-3,-7,-18,-32
7,13,49,-5,-2,50,39,36
5,-9,-76,-32,-8,-1,11,4
-4,-9,6,12,5,11,1,3
8,18,37,28,11,-7,-3,-5
-12,-10,-29,-27,-8,-19,-17,-9
11,35,71,20,4,9,2,1
3,3,15,16,-4,-1,2,-1
-16,-19,-54,-5,-2,-4,-3,8
16,16,26,-11,2,6,4,2
1,-4,7,33,2,-4,3,-6
-4,3,-15,14,3,-5,-7,-2
5,-3,-28,-2,0,2,5,10
-5,-1,19,-15,1,-10,-12,-4
-2,1,48,4,-7,-5,-9,-6
-5,-12,-15,6,0,4,2,4
8,13,86,11,5,7,5,3
-10,-22,-42,-9,-9,-11,-5,-9
-4,-9,-49,-37,-5,-4,-6,-3
2,10,1,11,7,5,6,0
2,-2,24,15,2,4,4,1
-9,-14,-48,-24,-10,-12,-11,-6
0,-2,-12,-32,-10,-6,-2,0
-7,-2,24,22,-7,-2,-7,-2
0,-18,-69,-37,-10,2,-2,-2
0,3,15,-1,2,-3,-5,-2
2,15,20,2,7,5,-4,-2
8,14,7,-6,3,4,4,4
-5,-6,-11,-25,-4,-6,1,1
2,5,-3,22,-6,-2,-3,-3
-4,-9,19,2,15,-3,0,-2
-1,-1,33,-11,-12,1,1,-3
1,1,-27,23,-8,-5,0,1
3,8,18,-18,-2,-3,1,0
-5,-6,43,56,72,21,8,-1
-1,-7,-45,-11,-4,-1,-2,0
4,7,3,-13,-4,0,-1,0
-6,-6,10,4,11,-2,-3,-5
1,7,8,-11,-29,-7,-2,-2
-1,-9,-32,3,10,0,-5,-2
0,2,25,-15,-8,3,3,0
-3,-9,-57,-22,-19,-11,-5,-2
-2,3,68,9,-13,-6,-6,-1
-4,-12,-73,-36,-10,-7,-6,-1
3,13,11,-9,-1,-4,-4,2
-2,-3,-19,8,11,10,4,1
8,31,63,13,-2,0,1,-1
-16,-54,-79,-21,-7,-4,-3,-8
3,9,3,-14,1,-1,0,0
-3,5,68,25,-1,-3,-2,-3
2,5,-17,-25,-41,-9,1,0
1,10,46,48,54,9,-1,0
-3,-9,-29,10,18,5,3,-2
1,-2,29,0,-3,-1,-2,0
-6,-9,-1,-11,-14,-3,1,-3
2,12,10,-13,-22,-5,-1,2
-4,-10,-27,-6,1,0,-2,-1
4,4,69,18,3,-4,2,1
-6,-12,-63,-21,0,-6,-1,-4
3,12,20,11,-6,-6,-1,0
