2,-1,-2,-6,-3,-3,-2,-1
-7,-8,-1,-2,1,4,-2,-2
-1,1,1,5,0,-3,0,-2
-1,-4,-5,-8,-3,0,-1,1
4,7,4,5,4,1,1,0
-1,-1,-1,-2,-2,-3,-3,-2
-7,-1,1,0,-3,-1,-3,-4
0,-2,-4,-2,-1,0,-1,0
-2,-6,1,3,-1,1,-2,-3
0,-1,-4,-3,0,1,-2,2
1,2,-1,-3,1,-2,0,-1
1,8,8,8,1,-1,-1,0
-4,-7,-6,-3,1,1,0,-3
2,3,3,-2,-1,-1,0,0
3,5,3,4,0,-2,-1,1
-3,1,-1,-3,-2,-4,0,-2
-2,1,-2,-3,-2,-3,-2,-2
1,9,2,1,-2,0,-1,1
-1,-4,0,3,0,1,-1,0
-3,-11,-2,-2,2,2,-1,-2
-3,-6,-11,-15,-8,-3,-2,2
0,4,-5,6,1,-2,-1,-1
0,3,6,9,4,0,0,0
-1,-6,-4,-2,-2,-1,-2,-4
1,0,1,0,-1,-2,-1,-2
2,7,2,-5,-2,-1,2,0
-4,-1,-4,-9,-5,-4,-4,-1
-6,-17,-6,-2,-3,-3,-2,-3
-2,0,3,9,3,3,2,-1
1,-7,-1,-10,-4,-3,-1,0
0,6,-5,-6,1,0,-1,0
-4,3,3,-2,-3,0,-1,0
-1,1,4,6,-2,-3,-5,-4
-1,-6,-7,-7,-4,-1,2,-1
-1,-7,-2,9,3,2,-1,-1
-2,0,-5,-23,-6,-5,-5,0
-2,-13,-4,17,2,0,0,0
0,6,-1,2,2,-1,-2,0
3,12,2,-6,-2,-1,-1,0
5,27,7,0,-2,-1,0,1
-1,-4,-1,-5,0,-1,-2,-2
11,-41,-7,5,-5,-3,-2,0
-16,2,-9,-22,-5,0,2,-2
-8,13,5,27,3,-2,-1,-2
-6,-7,-13,-14,1,-1,-4,-1
-9,-4,58,37,4,0,1,0
41,87,-2,9,-11,-1,0,2
-5,-30,-65,-38,27,10,6,5
-34,20,-50,45,7,1,2,-2
19,65,51,15,15,6,4,2
19,-71,-63,-59,-25,-11,-6,-6
15,126,109,43,-21,-6,0,6
-39,-118,-128,-88,35,5,-5,-18
-45,80,88,42,-6,3,7,4
-13,-6,-71,-36,-17,-14,-15,-15
-59,-43,26,43,13,3,1,1
74,66,127,45,-3,16,17,23
2,15,-104,-48,-21,-18,-14,-12
14,81,109,0,7,15,20,20
10,-67,-38,0,-4,-6,-16,1
21,127,35,3,-15,-7,0,-28
10,-122,-4,-39,3,1,-1,45
-2,-56,-59,-18,-8,-13,-4,28
0,-70,53,7,-5,-6,-3,-40
101,126,-30,37,40,28,23,36
-33,-47,47,11,-6,2,20,27
20,24,-12,-20,-3,-8,-24,-14
123,34,-31,-11,-10,-1,0,-18
-32,-119,72,-1,-3,4,9,21
-24,126,-94,-31,-13,-16,-9,-56
-82,-83,-59,32,-4,-13,-14,19
42,17,-104,-87,-22,-1,1,10
-7,102,127,44,18,15,15,20
-40,-36,-1,-35,-18,-45,-72,-44
74,-90,-4,-8,1,26,42,-2
12,127,88,68,42,36,54,59
-109,-128,-128,-73,-59,-59,-83,-94
108,26,104,3,11,17,20,29
-49,127,15,25,29,-35,-33,-1
-34,-128,79,12,-17,15,26,25
2,127,-40,-40,-9,-30,35,41
-13,40,-67,-5,-11,-18,-80,-4
37,-14,122,0,-10,85,77,12
26,60,-5,48,46,21,27,-37
-71,-78,90,-10,-7,-11,-20,-25
60,31,28,56,0,-6,32,9
11,38,-26,36,36,-17,-34,-10
-30,19,-66,-64,-25,-17,-52,-12
4,-18,-59,15,-5,3,6,-3
-46,24,89,-19,-26,-29,-26,-28
78,29,42,28,19,26,25,35
-80,91,-90,-16,2,-6,-8,-39
97,-39,-4,-17,-9,-7,-6,35
-63,4,-50,39,42,46,40,18
-53,-30,73,32,-20,-12,-13,-49
35,10,117,12,-19,-24,-7,41
31,7,-36,-13,-3,-4,-10,-8
-3,51,-127,-58,-13,21,24,25
10,0,-2,-24,6,-13,1,4
-15,-73,37,-11,-36,-34,-49,-16
-34,68,120,70,28,35,45,8
54,51,-71,-10,31,40,29,-13
-6,85,-10,-38,-25,-24,-21,-22
-55,-128,35,-14,-5,-6,8,0
27,127,-63,-16,-8,-8,-22,-9
13,23,51,38,12,7,16,8
-2,3,28,26,10,11,10,17
8,127,20,-15,11,2,-2,2
1,-128,83,60,-9,19,15,33
23,75,19,10,47,2,7,10
-6,-117,21,29,10,1,-23,-16
12,-37,29,24,8,1,10,-4
11,86,-26,-27,1,11,6,17
20,11,101,-7,-45,-28,-20,-8
17,13,94,1,6,20,32,-2
-43,-45,-105,-37,-18,-15,-30,-40
-57,-105,-61,-38,-1,4,10,-4
-31,-128,-83,1,-6,-11,-27,-33
-23,-11,87,62,23,-7,-4,-13
45,127,127,31,-3,2,7,4
27,-26,-40,-34,-34,-13,-13,-19
-64,-125,25,-41,26,15,39,30
-7,-25,-57,-11,-27,-32,-39,-18
30,39,26,-20,0,-5,-43,-17
-33,-83,-42,9,-9,-12,-24,-35
44,61,89,-34,-38,-11,13,10
-27,-48,4,6,12,25,69,47
-55,-110,-96,-26,-20,-17,-8,-4
-23,20,5,27,16,-33,-97,-63
26,37,22,19,7,13,5,10
5,93,26,41,4,6,15,15
96,79,48,1,8,28,64,50
-48,81,18,-34,-7,1,11,-11
24,41,79,51,12,5,7,15
-22,0,-10,7,7,7,25,32
-70,51,-52,-75,-32,-6,-36,-72
42,-36,-12,71,61,23,8,-9
-47,63,42,58,13,22,87,66
34,-110,-55,-2,7,-12,-41,-27
-21,81,-12,-27,-20,-38,-48,-49
-66,-25,-2,-3,-9,22,107,93
-67,16,40,-17,-27,-35,-118,-113
33,25,2,-24,-20,0,17,-7
53,-29,-14,20,37,0,-40,-11
-42,-28,9,-34,-6,-3,14,21
51,54,32,68,25,10,17,25
10,5,-93,-92,-34,-11,18,34
-6,24,64,69,19,15,-4,-29
7,-30,69,-40,-10,12,53,48
4,-83,-90,-26,-18,-17,-51,-43
-18,-85,8,13,9,-4,-26,-7
-29,-70,49,-8,17,13,20,25
51,63,127,53,-6,-8,-33,-35
-6,-32,-30,-42,-11,-7,23,7
12,127,-6,-55,-20,-8,-51,-34
24,11,46,89,37,21,66,104
-13,127,127,57,-14,13,47,19
-10,-113,-55,-86,8,-29,-67,-70
-30,-57,-63,2,-9,3,23,4
36,45,11,-45,-6,11,49,55
29,29,-17,-56,-16,-21,-51,-49
30,-11,-51,23,17,24,38,40
-10,78,-37,17,2,-10,-3,-7
-62,-100,16,-31,-40,-22,-42,-50
67,45,-36,48,59,30,71,65
61,36,-47,-8,-19,-23,-92,-54
-100,-57,71,-24,19,11,21,-14
67,87,105,40,14,1,-10,24
-54,29,-16,12,-8,-9,-29,-11
-4,-5,9,-15,-16,0,26,16
52,-94,-50,18,-9,-9,9,40
-38,30,-114,-53,-6,7,14,-17
20,-124,54,-4,-10,-17,-43,-55
-46,20,-57,-18,3,6,9,2
45,42,44,34,-11,-13,-17,-13
-49,-56,-43,9,1,12,26,7
49,55,-67,-98,-32,-3,20,35
-26,81,127,97,34,5,-62,-71
56,115,84,-28,16,11,1,17
32,-46,-65,17,-24,-14,33,23
-62,-90,-49,-30,-18,-27,-88,-83
4,38,81,12,4,16,52,61
-10,-26,-54,0,11,11,5,-18
19,26,89,-3,4,1,1,4
11,24,93,42,0,16,67,66
0,-9,-110,-44,-2,-5,-6,-10
9,72,45,32,18,0,-18,-6
-2,4,-66,13,0,-3,4,9
15,-25,19,-27,-11,-2,-5,-26
31,-8,99,44,-9,0,-12,-19
-12,-58,-109,-66,0,0,17,2
-13,33,-2,4,-1,-7,-40,-28
36,-14,-37,-35,-13,-8,2,-8
-67,-113,-22,-23,-24,-15,-1,4
-38,-38,-3,-1,-13,1,-13,-21
8,-77,31,13,19,12,63,48
16,21,47,41,-9,13,-12,10
34,-31,-69,-3,35,0,-9,-7
-55,17,32,-2,-19,-19,-8,-5
8,3,-1,10,13,9,10,33
72,108,-96,-25,5,12,16,-14
-40,-15,100,36,7,6,27,46
18,40,-9,-27,-6,-11,-42,-46
-54,-59,58,29,7,9,45,48
-4,-40,-72,14,7,-16,-56,-19
16,-55,-26,-28,-8,17,36,22
-28,-46,37,-6,-5,2,36,37
36,78,-15,-24,-26,-18,-89,-69
-30,-116,-128,9,25,-6,-6,-7
50,57,27,-4,-8,2,33,12
-42,-15,52,20,6,10,-15,-7
-27,-22,-17,-3,-1,7,17,-9
23,-26,-7,-21,-16,-13,-20,0
2,82,-23,7,4,1,21,1
8,-34,44,22,-10,-3,42,51
28,22,13,-3,5,-1,-35,-54
-41,8,40,4,-2,-3,-22,-16
22,-23,69,-7,-8,-5,-15,10
17,-11,-59,4,-18,-9,-28,-42
27,4,82,23,22,2,-1,4
-46,64,-14,-39,-25,-17,6,5
-32,70,19,21,12,19,53,43
-22,-7,63,14,-4,-7,-23,-29
14,34,4,-10,-16,-17,-28,-28
-1,73,1,-41,-9,-11,-6,-17
48,-44,16,-40,-9,0,-12,14
-27,-47,-25,5,5,4,28,8
-48,39,13,-29,-10,1,16,28
46,29,80,27,9,8,-4,-13
-35,-102,-45,-45,-33,-18,-11,-26
69,87,-18,42,30,2,-27,-20
-18,-12,78,54,5,2,29,46
-22,11,-73,-64,-15,-11,-49,-38
6,47,51,-8,-7,7,34,21
43,73,93,12,-3,-4,-13,-3
-4,-18,-61,-42,-2,-2,7,-4
-12,57,68,42,26,17,53,57
14,8,-53,26,3,-8,-28,-34
-22,6,-39,17,3,3,-23,-17
-21,-41,11,-7,-9,-9,-5,-11
-4,-78,-57,-19,-7,-8,4,14
-5,-11,41,-7,-1,5,-6,-16
2,-47,45,-15,2,7,11,14
-16,-79,-49,3,-1,-5,-8,-19
21,-10,34,13,-1,-1,-2,-3
-51,6,-20,0,0,-25,-26,15
3,-41,-6,-5,-5,7,11,-45
-53,-22,-101,-19,-4,-22,-69,-18
34,-16,5,5,-1,46,86,92
50,-3,19,4,3,-14,-23,-55
33,46,31,1,4,9,-7,99
36,1,-22,-13,0,-32,-64,-80
-46,16,85,20,1,50,63,-60
78,-7,-38,-12,-5,5,26,116
-4,14,-26,-9,-2,-39,-31,-90
-1,-12,-54,-19,-9,0,-8,93
-39,-42,-2,3,0,21,20,99
-67,14,88,19,13,67,64,-123
74,27,93,46,11,-22,29,8
-73,-56,-83,-86,-39,-25,-15,-84
38,9,127,15,-2,-23,-86,-8
-31,2,85,35,9,-43,-40,-19
-95,-43,92,-39,-24,-6,-101,-29
6,23,56,50,25,28,109,-116
66,-3,-97,-49,-16,-35,-7,65
-41,27,61,22,8,-8,-53,-48
-25,3,-5,-5,-7,-15,-24,60
92,30,20,20,10,49,26,14
-71,21,65,29,11,-30,12,-45
24,-86,-128,-40,-22,-20,-28,94
-34,21,-41,-24,-1,47,93,-113
39,22,21,12,3,-2,-21,113
-68,2,15,19,8,-14,-26,-113
58,-1,-45,-18,-11,-31,-43,-16
10,2,-20,-8,-5,-15,9,62
-18,-4,22,9,2,-34,-66,-35
-13,-19,-5,0,-2,37,42,-56
-25,-8,-27,-16,-10,5,9,-24
-5,-9,-39,-12,-2,-13,7,61
21,18,30,13,6,35,46,-12
40,-13,-25,-4,-4,-46,-61,66
15,31,-4,3,5,27,36,-18
-9,-8,-16,-5,0,7,36,4
-14,-13,-4,-9,-7,-15,-25,49
-1,-2,15,9,3,-13,-20,-40
0,7,-2,0,2,24,21,22
25,6,-1,2,6,4,13,0
-14,-30,-6,-11,-8,-14,-22,-12
19,-1,7,6,3,14,31,14
-10,0,-5,-1,-3,-8,-8,6
-9,6,-1,-5,-4,-12,-31,-21
16,-3,5,2,-1,14,26,22
8,3,3,6,6,4,2,31
-38,-14,-9,-9,-10,-26,-34,-27
21,13,8,7,4,19,16,14
-8,-8,-12,-8,-2,5,21,0
15,38,20,4,1,-15,-36,-10
-13,-15,-17,-2,0,5,18,17
-11,-11,-15,-1,0,8,6,-4
8,9,5,3,4,-2,0,6
-10,-3,-6,-1,-3,-8,-15,-13
7,16,1,0,1,11,21,12
4,5,-9,-5,-4,-8,-15,-8
-6,-7,-2,-1,-3,-12,-10,0
-2,-18,-10,-3,1,10,6,-2
-3,7,5,-1,-1,2,13,5
1,3,-4,-1,-1,-10,-22,-5
-1,7,2,1,-1,-4,1,2
-12,-24,-21,-5,0,8,13,-10
1,-1,-3,-2,-3,-10,-8,6
-7,0,-4,-5,-2,-8,-5,18
10,2,-6,2,0,0,15,28
-4,1,8,2,1,15,4,-2
7,-9,-10,-4,0,-3,0,7
2,3,1,0,1,3,1,6
-19,-8,2,1,0,3,-1,-5
20,5,1,1,-3,-24,-17,-1
22,-4,1,0,4,11,8,-4
2,1,2,-1,2,14,13,9
8,2,-2,-3,-3,-13,-15,-14
-10,-6,1,-1,-4,-1,5,6
-3,2,8,6,4,10,4,3
-4,-13,-13,-7,-6,-9,-4,-17
0,-6,-7,-1,1,-4,-14,3
3,4,3,0,-3,2,7,-2
-10,1,-1,0,-3,-5,3,7
-7,-10,-1,0,0,2,-5,-13
-1,5,7,2,-1,-10,-3,1
-7,-8,0,0,0,5,1,-5
-10,0,-1,-2,-2,5,4,5
2,-5,-5,0,0,-3,-7,-2
-4,-3,-4,-4,-4,4,6,-2
1,-3,0,0,2,-2,-8,3
-6,2,-1,-3,-3,-5,5,-2
0,2,0,-2,-3,-3,-13,-6
1,-1,2,0,1,-1,6,1
-5,-4,0,-1,-1,-6,-13,-12
-3,7,13,4,-1,-11,17,37
-26,-6,-6,2,6,20,11,-11
2,-2,-3,0,3,6,14,-2
-2,2,1,-2,-3,-8,-28,-12
-1,5,-1,-4,-4,-10,-11,-6
3,5,8,2,-3,-9,-7,3
-1,-1,-1,-1,-2,6,6,-5
-1,-2,-5,-1,2,-3,7,5
-4,1,1,0,1,0,-4,-12
-1,-11,-8,-5,-2,0,0,-2
-1,8,8,1,0,6,2,2
-12,-35,-25,-10,-7,-13,-9,-10
1,-3,-5,-3,0,13,4,-7
1,6,3,-2,-1,-3,2,1
1,2,-3,-3,-2,-3,-3,0
2,7,7,2,1,0,0,2
-1,3,0,1,-2,0,-4,-8
4,9,-11,-6,-2,-4,-4,0
-8,-16,1,0,-4,-10,-7,-5
0,9,1,2,3,8,7,-6
-2,-6,-11,-5,-1,4,2,5
4,3,3,-1,-4,-3,-1,-2
-2,-1,1,1,-1,-2,-2,-1
0,6,2,3,-1,1,2,3
-3,-3,2,0,1,-5,-4,-7
-1,-10,-6,0,-2,-4,-1,-2
2,1,-5,-3,-3,0,-1,-2
-2,-5,-1,-2,-2,1,1,1
-1,4,0,-2,-2,-3,-3,-2
0,0,3,2,1,-1,0,0
-1,0,1,-1,0,-2,-2,-2
7,13,6,1,2,1,4,6
-5,-7,-4,-3,-3,-1,-4,-5
-6,-6,-4,-4,2,2,0,-1
11,0,-4,-2,-2,1,1,0
0,5,4,-1,0,1,0,2
-3,0,-1,-2,-2,-5,-3,-5
3,-2,0,1,2,0,0,1
-3,1,2,-1,-1,3,0,-1
0,8,6,2,-1,3,0,-4
-4,-15,-13,-7,-2,-4,-3,-4
1,6,6,2,0,0,-1,0
-2,0,-3,-2,1,2,1,2
2,1,-2,-2,0,-1,-3,0
2,17,13,6,0,-4,-3,0
-6,-18,-4,0,1,-3,4,-1
-4,-5,-5,-1,0,-4,-4,-3
-2,-10,-7,-3,0,5,-1,0
0,0,3,1,0,0,-1,1
-3,-4,-5,-4,-5,-1,2,5
0,1,0,1,1,-2,-6,-17
-1,1,-1,0,0,-4,-1,2
-4,-6,-1,-1,0,0,2,-2
1,-1,0,-2,-2,-4,-8,-2
-2,3,0,-1,-1,-1,1,3
0,2,-2,-2,-2,-1,0,-1
2,2,1,2,0,1,1,-2
0,0,-6,-4,-3,-4,-2,-2
0,3,1,2,0,1,1,2
-2,-6,-5,0,-1,-2,-1,-2
-3,-6,-6,-5,-3,-1,-3,-1
-1,6,6,2,0,0,-1,-1
1,0,-4,-1,-3,-3,0,-1
