1,1,3,2,-2,-2,-1,0
-1,4,2,0,3,1,-2,-3
-2,-8,-14,-3,-1,-1,0,0
4,9,9,1,0,-1,2,1
-2,-10,1,-5,-2,-2,-3,-2
1,8,12,4,-1,-4,-1,-2
-1,-2,-11,2,0,0,-2,0
1,1,2,4,2,0,-1,-1
-1,2,25,-9,-3,-3,-3,-3
1,-2,-39,-8,-5,-3,-3,-1
-1,4,5,16,6,6,2,1
-4,-8,25,-10,-7,-4,-4,-3
-2,-6,-20,2,3,1,3,0
2,5,32,10,1,-4,-3,-1
-1,1,-17,-9,-2,-1,-2,-1
0,-4,0,8,-1,0,0,0
-2,0,6,-12,-1,-3,-2,-1
-1,-2,-3,-9,-6,-4,-3,-3
2,5,3,3,2,0,-1,0
2,13,10,0,-1,-1,0,1
-3,-10,-9,3,0,-6,-2,-2
-2,-4,-13,-2,0,5,3,0
2,2,16,-3,-1,1,2,0
-2,4,-9,-3,-5,-6,-5,-4
0,2,-11,4,0,3,2,-2
0,1,7,1,0,-3,-1,0
-3,-7,-2,-7,-5,-2,-3,-1
2,5,3,2,7,2,4,1
-1,-4,-5,2,-1,-3,-3,-2
-2,-3,-1,-7,-5,1,1,1
0,1,26,2,0,-4,-3,-1
-2,-7,-41,-6,-2,0,-1,-2
-1,0,2,3,1,-1,-1,-1
1,4,3,-9,-2,0,-1,-2
-5,-12,-11,9,1,-2,-2,-1
-6,-11,22,-6,-6,-3,-5,-2
-2,-6,-14,0,0,-2,-2,-2
0,0,0,0,2,2,2,-1
-1,4,-14,-17,-5,0,-1,-1
0,4,14,8,-3,0,0,-2
0,-5,-6,4,0,0,0,0
-1,-1,7,2,-2,-3,-2,-1
0,0,-12,-3,-3,-3,0,-2
0,-3,-8,-2,0,1,1,-1
-2,-1,-2,-11,-7,-2,-3,-1
-1,0,4,2,-1,-3,-3,-1
-1,1,5,1,-2,-3,-3,-4
-3,-5,-2,0,1,-1,-1,-2
1,3,-2,1,2,1,0,1
0,5,-7,-2,2,1,0,-1
-11,-31,-16,-10,-6,-4,-4,-3
3,21,3,-3,-3,0,1,2
-2,-21,2,2,1,0,0,0
-3,1,3,2,-3,-3,-5,-3
3,14,7,2,-2,1,1,0
0,-18,-3,-1,2,-2,-2,0
-7,-6,-10,-7,-4,-3,-2,-3
11,57,7,4,0,-1,-3,1
-10,-48,0,0,-2,-1,-2,-2
20,88,0,3,4,2,2,4
-8,-66,-14,-4,-5,-3,-1,-4
28,72,7,3,3,6,23,15
20,-26,-5,-2,1,0,4,3
-17,-17,-7,4,10,11,21,10
17,-10,-11,-3,1,2,-6,-18
-44,-51,-3,0,5,7,26,-3
-46,-70,-17,-5,-2,9,42,3
35,37,20,-4,-11,-31,-100,-34
68,103,42,17,7,14,70,46
-37,-77,-7,-12,-17,-33,-75,-34
30,-56,-5,-4,-17,-30,-93,-39
-7,29,15,-7,-6,-7,-40,-85
-53,25,16,31,36,59,54,80
-58,-61,-57,-46,-54,-71,-89,-84
9,47,15,-1,6,0,-19,12
70,34,41,24,32,56,70,67
-24,-59,-26,6,34,40,85,59
24,-39,23,7,-12,-18,9,-39
-26,108,99,35,25,34,-6,20
46,-108,-82,-1,4,-9,-65,-54
89,76,-47,-20,-11,-9,4,-19
60,-66,-10,7,26,26,64,33
-44,64,8,-9,-22,-51,-71,-94
3,48,48,10,12,45,127,127
-73,25,59,15,-7,-33,-88,-31
127,-77,-58,16,34,47,76,63
-49,-49,-14,-16,4,48,84,-13
-61,66,-19,-6,-9,-12,-39,-21
1,-40,-25,-28,-43,-66,-99,-44
105,96,87,16,10,7,-5,42
-65,-96,3,34,48,58,127,91
-83,-65,-92,-39,-32,-42,-71,-92
-43,-46,44,-14,-22,-37,-49,-36
-42,-39,-18,-11,8,31,38,28
60,15,-52,-21,-16,-35,-44,-24
33,4,120,29,-20,-32,4,-2
5,20,-86,-30,4,-6,-51,-79
48,127,45,19,29,59,73,95
-72,-6,-115,-93,-40,-35,-63,-16
22,33,87,3,-5,-24,-31,-47
19,-57,55,47,14,24,60,52
-128,8,29,4,2,-3,-11,-21
28,-62,-5,6,-3,1,3,-27
-9,2,-16,-17,-9,-13,24,52
56,102,1,0,5,22,-18,1
-53,16,-63,11,13,6,-13,-29
-10,10,-8,4,-12,-16,-12,-57
-6,-53,17,1,8,15,38,61
24,-53,-13,22,19,46,82,31
-5,-71,26,-29,-29,-41,-14,69
51,127,19,6,13,13,-33,-58
-95,-94,-36,3,-4,-11,-21,14
-1,22,-16,-29,-8,1,43,11
17,70,11,15,5,-9,-72,-56
84,56,37,42,28,26,48,14
-78,-84,-88,-29,-37,-47,-57,-28
51,96,11,0,-10,-8,-5,-46
-112,-23,-15,-25,-14,2,5,18
11,-32,-26,-21,-29,-46,-93,-34
38,89,-34,-14,-8,-7,12,-28
-36,-89,10,-18,-20,-19,9,4
-11,89,44,9,-16,-23,-33,-34
57,11,49,29,19,29,77,123
5,16,43,8,21,24,7,-35
-38,-48,-32,-20,-23,-55,-94,-86
-54,-17,-79,-31,-14,-15,-23,-41
-15,8,-10,3,-3,-7,-1,40
-13,-1,10,9,18,26,73,8
42,83,45,-1,-7,-8,11,33
48,16,21,11,0,-17,-88,-90
-7,-47,-27,-20,-13,-15,3,19
39,42,17,17,19,37,48,72
-80,-128,-30,-11,3,-7,-40,-47
102,94,8,9,-12,-12,-4,37
-24,95,85,27,19,22,53,-7
38,-64,-86,-16,-3,10,58,42
23,-1,21,-1,-9,-21,-81,-21
-37,71,-64,-12,1,5,20,-24
36,10,15,3,6,22,94,80
-22,16,-8,-2,4,-12,-86,-76
-23,62,43,12,7,14,-18,-46
-16,-98,-41,-22,-17,-28,15,25
46,73,19,11,-10,-22,-51,-27
-34,-101,-37,-5,5,6,38,34
42,52,-12,13,19,23,25,62
-3,-32,-2,14,15,15,-15,-19
-54,85,-17,-11,-10,-7,-1,-2
-13,-4,-2,-19,-12,-12,-25,-14
7,55,12,10,7,4,39,33
24,-95,50,8,-4,-3,4,-6
16,13,-16,7,10,-4,-66,-24
-22,0,-12,-16,-9,4,10,-13
-33,32,-19,7,5,11,55,50
-2,32,-9,-9,3,-5,-34,-49
-2,-87,14,6,-5,1,51,64
109,54,25,11,11,11,-47,7
-47,6,-20,-22,-13,1,59,43
44,-20,18,24,4,-3,-32,-19
27,-64,-45,-12,13,24,45,35
-68,6,56,14,-8,-17,-6,-33
70,47,-28,2,4,4,5,47
-14,5,17,6,6,10,13,-9
-13,32,30,3,5,9,10,-22
-30,-67,-39,-25,-17,-11,25,49
-55,12,9,-3,-15,-15,-62,-89
32,-28,-11,-21,-9,-2,15,17
-39,7,-61,-14,-6,-13,-45,-32
98,7,33,5,-3,6,29,41
-70,-59,2,15,10,5,7,-5
34,56,-10,8,-7,-4,59,54
-25,37,56,10,-16,-28,-90,-66
38,98,-10,-17,7,4,-27,-24
-62,-116,-61,-33,-14,-8,8,2
30,-19,13,6,6,9,49,26
8,49,22,20,0,3,34,38
7,113,45,4,1,-16,-50,-23
-12,73,49,9,2,-3,-26,-40
14,-61,-52,-17,-10,-6,12,19
-33,-49,-29,-16,-7,6,75,63
-11,-39,-40,12,-4,-18,-84,-79
20,-13,-9,-6,-8,-7,-19,10
-7,107,75,7,8,14,13,17
5,-67,-38,-11,0,5,-5,20
15,-10,-14,-5,-8,-7,3,-23
58,-17,9,4,7,11,44,58
-66,-59,-25,14,10,2,-7,-45
19,-32,36,28,-2,-11,-46,-25
35,83,42,-13,9,10,13,14
-39,-53,-24,-23,-10,-8,-13,-22
-6,51,5,-4,1,6,8,7
10,-54,48,14,18,28,52,14
-51,-57,-34,10,-18,-45,-76,-28
111,52,16,5,8,17,43,29
-85,-26,-9,-33,-10,-6,-28,-5
55,94,-9,17,5,-3,-36,-31
-20,-81,4,12,11,31,89,54
36,19,32,15,6,0,-25,2
38,-37,-29,6,-3,-4,7,14
-22,8,-40,-37,-1,5,0,7
-15,-38,-36,-5,-11,-5,34,8
-23,-73,-51,-26,-19,-23,-71,-54
8,14,49,-4,-1,11,36,31
-15,54,23,5,-11,-22,-42,-54
-2,-47,14,4,16,16,13,23
-8,-22,6,11,0,-5,12,14
4,40,1,-1,5,4,-31,-26
-58,6,-17,-6,-11,-19,-45,-68
-11,-28,7,-1,8,19,102,76
24,72,1,16,1,-15,-88,-78
-43,2,19,-15,-4,-1,8,-5
17,-93,-53,4,4,8,26,35
41,45,17,2,2,9,48,29
-71,-92,-34,-24,-11,-16,-37,-37
36,26,45,10,4,6,-7,14
-7,-40,-47,-11,-3,-9,-20,-6
-13,-21,10,0,-7,-9,-32,-15
56,77,49,14,15,32,62,36
-87,-27,-60,-3,4,5,27,27
19,-11,1,-19,-16,-20,-8,-18
15,14,-19,9,-2,-9,-59,-55
22,54,43,19,8,12,53,32
-43,-69,10,12,-4,1,14,37
-1,29,-57,-22,5,-3,-49,-44
3,-15,-16,-9,-12,-17,-16,5
-56,-67,62,18,3,4,4,-5
17,29,-75,-14,2,1,9,1
41,-57,68,9,11,19,53,13
-69,-53,-38,-16,-9,-13,-60,-32
11,43,31,-2,-2,-4,13,10
39,50,-32,13,7,11,15,1
-42,3,-12,0,-5,-6,10,-20
31,68,72,6,12,12,14,11
-6,30,-16,-5,0,-1,13,11
46,-48,38,3,-12,-14,-7,-3
-23,-10,-85,-37,-20,-13,18,24
15,120,51,30,12,-6,-65,-36
-14,-69,1,-43,-18,-6,24,9
18,33,39,38,13,-4,-65,-60
-13,-42,59,-20,-7,3,26,54
-31,-40,-53,0,-1,3,58,13
-7,8,-90,-6,-11,-25,-91,-42
18,-62,71,-3,-7,-2,9,7
-10,15,44,-2,-4,-1,-20,-18
1,0,-42,11,5,15,29,9
24,4,-21,1,-7,-7,8,-14
-44,46,31,-23,2,10,54,49
5,74,17,20,11,-14,-103,-72
35,-38,-17,-23,-18,-6,22,38
-28,-12,30,5,3,3,8,20
-6,47,-36,-10,-9,-12,-28,-33
15,-86,-75,-18,7,23,32,20
11,17,57,0,-3,3,24,23
-32,39,-13,21,3,-5,47,36
18,-107,-17,-12,-2,-13,-91,-50
9,48,57,26,6,0,21,22
7,30,8,-7,-6,3,-38,-62
0,37,-13,9,15,26,89,69
-27,-31,-19,-18,-13,-17,-34,-55
19,31,-9,8,-7,-13,-8,36
-6,-16,37,8,9,14,36,6
3,-22,-31,-14,-1,1,-28,-29
28,26,39,6,-2,-6,-7,19
-26,1,30,-10,-15,-21,-14,-11
-2,16,-46,-2,13,11,16,23
22,83,39,0,5,13,5,-20
11,-16,-35,0,-1,11,76,74
16,39,76,3,-11,-25,-87,-64
-14,-11,-45,-5,-2,2,10,15
10,-69,-48,-4,0,5,20,-12
-17,21,17,-6,-13,-28,-102,-91
15,-9,1,8,6,14,67,58
-7,21,53,5,-1,1,0,-19
7,-5,-4,16,3,-7,-46,-18
-7,34,-48,-17,2,11,32,28
-5,4,9,3,7,15,36,2
-14,-56,-2,-2,-11,-20,-60,-31
20,97,11,-10,-7,-4,-10,-1
-21,-44,17,-2,-4,-12,3,-1
9,12,29,10,9,-1,-11,-1
-5,5,-40,-10,-1,7,14,7
-9,-34,-75,-8,-3,0,17,19
9,63,33,14,7,10,6,-2
-14,4,-6,-4,-4,4,48,37
-13,-27,23,11,-1,-17,-71,-65
-3,-10,66,4,-1,-18,-47,0
13,-8,-23,3,3,27,38,-19
-2,-21,43,10,5,12,33,32
-17,19,-15,-6,-5,2,14,-5
2,-16,12,-6,-2,-7,-29,-13
-8,0,10,13,2,-3,5,15
11,-10,-51,-7,-1,-5,2,-6
-23,9,75,-7,-2,0,-1,27
-15,-39,40,-13,-9,-12,-20,-23
22,19,32,45,18,10,33,31
7,-1,-100,-15,3,-10,-18,-35
25,3,41,14,-5,-8,-23,5
-73,-8,37,-16,-16,16,28,15
11,-12,106,-9,-2,-3,4,11
16,31,56,36,11,4,-10,5
-13,-9,-74,-4,-2,-16,-18,-53
27,15,-64,20,21,18,21,13
-3,-12,-94,-7,-20,-16,-15,8
-18,-19,28,-12,-5,-1,-12,-13
-1,10,74,-6,-1,2,20,10
12,-10,-50,-18,-2,2,0,-1
-16,-23,-8,-12,-9,-13,-13,-15
14,-12,-42,-15,8,7,9,28
6,-18,42,27,9,11,16,15
24,79,127,22,2,-3,-5,-8
-15,-45,-73,-53,-12,-6,-9,-14
-8,-28,-76,-2,-2,1,4,4
3,18,-57,-3,1,5,4,-9
10,-32,86,24,-4,-12,-12,-11
8,52,86,71,32,19,17,19
-13,-46,-67,-81,-31,-9,-14,-23
19,-30,21,-31,-5,-6,-2,9
-32,2,49,15,-1,-2,5,3
-14,-12,-89,-9,-1,-2,-7,-10
6,57,127,57,15,8,0,0
2,-1,-97,17,10,2,3,5
-1,-45,-25,-44,-14,-5,-3,-7
4,58,8,-21,-5,-4,-3,-5
-28,-59,68,9,-6,-4,-5,-7
19,48,7,-15,-17,-12,-5,-6
18,10,8,43,18,8,5,9
-1,-20,5,7,4,2,0,4
7,19,-73,-23,-4,-2,-4,-11
-16,-10,66,1,-7,-3,2,-2
2,-17,-18,-5,-1,-2,0,17
4,-25,-47,-31,-7,-8,-11,-41
-14,-43,-7,23,-3,-3,-5,-7
9,11,-63,-1,12,10,7,13
-8,-20,40,-14,-8,-6,-9,-14
3,20,66,7,0,2,7,25
4,-4,-66,-11,-5,-4,-4,6
-20,-45,-58,-32,-9,-3,-3,-6
20,-4,12,-2,7,4,5,3
-39,-33,-27,-4,-11,-8,-8,-17
9,12,23,7,-1,1,-1,-6
24,21,25,-3,3,0,1,5
-22,-21,-62,-6,1,0,3,3
9,9,23,2,-3,0,0,1
-3,-17,5,5,0,-3,2,9
-6,0,-5,1,3,6,5,-11
25,19,8,29,2,-1,-5,12
3,19,-9,-16,-6,-6,-5,-12
3,-5,-29,-11,-2,1,4,4
1,13,82,21,8,5,4,15
3,26,-113,-21,-10,-10,-8,-7
-32,-47,39,-15,-6,-2,-5,-7
12,24,44,2,-5,-4,-4,7
-30,3,50,12,3,-2,1,-8
-1,-3,21,3,-6,-2,-1,0
11,4,-116,-13,1,1,-2,-2
-12,-2,-13,4,0,0,-1,-18
-1,29,36,-2,-2,-3,0,8
-7,-40,-6,2,0,-2,2,-3
6,24,22,-13,-2,-3,-1,2
-5,1,41,5,1,2,-1,-3
8,30,-25,-8,-6,-3,-3,4
-12,-52,-75,-14,1,0,1,2
12,15,13,29,5,1,4,19
1,5,-4,-9,0,0,1,-6
14,-9,25,3,-5,-1,1,14
-30,15,32,-5,-2,0,-4,-15
3,-25,9,6,-1,0,0,-4
-5,5,47,17,1,-2,-2,-3
6,-24,-74,-12,-2,-2,-2,3
-5,12,23,-10,1,1,1,-5
-2,4,18,7,4,0,2,-2
-8,30,1,-8,-2,-3,-4,-20
-8,-13,40,13,0,0,0,-5
7,-7,-48,-13,-4,0,0,4
-3,9,8,11,-3,-5,-5,0
-1,-4,2,-6,0,2,-3,-2
-15,-40,-54,-10,-3,-3,-4,-8
8,1,48,-8,-7,-3,-3,-5
2,7,-15,1,3,3,2,1
3,-2,-11,4,4,-2,-1,5
1,27,40,16,6,2,0,-3
5,-3,-45,-5,-2,-3,-2,6
-4,5,52,-5,-8,-7,-7,-9
-5,-33,-49,-11,-6,-6,-4,-3
0,16,21,3,-1,1,2,5
3,6,22,7,1,2,-1,-6
7,21,21,12,9,6,3,3
14,0,1,-4,-5,-2,1,14
-15,-6,-80,-16,-10,-7,-7,-20
7,15,9,5,0,-1,3,18
-8,-36,-20,1,1,3,-1,-15
4,10,-6,-2,0,0,-2,-8
4,-11,15,1,-6,-5,-2,7
9,57,39,12,8,2,2,9
8,-14,16,11,0,-1,3,28
-29,-19,-15,-9,2,2,-5,-24
-10,8,40,9,-1,-5,-3,-2
19,3,42,12,-1,0,-1,-16
-4,-6,3,-20,-3,-1,0,8
4,-4,-18,3,-3,-4,0,2
6,13,7,-1,-2,-3,0,3
-8,-5,14,-3,2,4,2,-2
-1,-9,0,11,2,0,-1,-9
6,-1,-8,-4,-4,0,2,9
3,10,-9,3,9,5,2,1
