0,4,4,3,0,3,1,2
-3,-12,-7,-4,-1,-3,0,-1
0,-3,-3,-7,-4,-3,-6,-2
4,11,4,0,-1,1,1,1
1,4,-3,-2,-1,1,1,0
-6,-12,0,-1,0,-2,-3,-1
1,-3,-1,0,2,-1,0,-1
-2,6,-1,-4,-2,-1,-1,-2
2,10,-1,0,-2,-1,-1,-2
-2,-19,2,0,-1,0,0,-1
0,0,-2,0,0,0,-1,0
-1,4,1,-1,0,0,0,1
-3,-5,-8,-11,-2,-2,1,-2
-1,-6,-3,7,-4,-3,-6,-5
5,5,2,-1,1,-1,-1,2
-8,1,-1,-3,-2,-1,-2,-1
-1,-4,0,-1,-5,0,-1,-2
3,10,0,-4,9,4,4,1
0,-1,-5,0,-3,-3,-4,-3
1,4,-3,-4,-5,-6,-4,0
-7,-16,-4,-1,0,0,1,-3
0,-2,-2,4,1,3,3,0
3,7,1,5,1,0,1,1
1,0,0,-4,-2,-1,-3,-3
0,8,7,3,-1,-3,-4,0
-3,-11,-10,-13,-7,-3,-1,-3
-1,-5,-1,0,0,3,3,1
-2,5,-1,2,1,1,-1,-1
-4,-10,-1,2,1,2,-1,-1
2,5,1,0,-2,-3,-1,0
2,-2,0,2,0,1,1,-1
0,-6,-3,-4,-1,-1,0,-1
-6,8,-1,-4,-3,-2,-2,-1
-5,-2,0,-1,0,-3,-1,-2
4,-1,8,2,1,0,-1,-2
7,1,-20,-9,-4,-2,-1,1
-14,-6,-2,4,2,-2,-2,-3
6,-4,0,3,-6,1,1,3
-8,8,4,-5,-3,-1,-1,-3
15,8,9,3,7,6,8,4
15,-6,-8,-7,-4,-5,-7,-6
-16,-15,-17,-6,-4,-2,-1,-4
-32,-9,6,7,-3,-3,-3,-2
10,-31,-16,-5,-6,-3,2,4
40,25,19,-12,-2,7,38,29
-68,-32,-19,0,7,5,-5,-15
-34,-4,-22,-9,-7,-23,-53,-43
4,-2,14,-3,-4,-3,6,11
-1,-14,-12,21,19,32,62,42
22,9,22,4,-11,-33,13,0
-4,-5,-17,-14,-14,-15,-78,-82
14,25,0,-2,0,3,29,33
34,14,15,11,10,-4,52,29
-18,14,-19,-14,-9,-1,-71,-77
47,17,12,13,14,47,124,110
-30,-46,22,-2,-4,2,42,-42
-8,5,-15,-13,-24,-84,-101,-53
-37,49,25,8,-7,-18,-79,-84
30,-4,-29,-3,1,11,29,-3
-3,-19,-17,1,11,52,89,90
-31,-10,8,4,5,26,60,67
31,-5,21,3,13,-7,-3,26
5,11,-14,-6,-4,-20,-32,43
-16,2,6,12,3,17,37,1
19,-26,-10,3,13,34,79,-12
-25,24,19,-3,-20,-44,-78,-38
-9,91,75,29,8,6,-31,-109
-50,-85,-92,-38,-10,-18,26,-13
83,90,44,13,24,30,18,76
44,-17,6,-2,-2,16,-6,3
-86,-102,-13,-2,-18,-47,-68,-39
-41,18,-25,-16,-17,-49,-128,-128
-53,34,-27,0,6,24,24,-68
93,89,26,5,32,82,127,127
16,-105,-14,-14,-21,-36,6,16
-23,35,45,25,4,-15,-112,-80
-56,-27,-58,-41,-43,-55,-128,-95
0,31,-25,-3,14,22,76,40
29,42,43,12,22,24,40,67
60,-21,26,-6,8,33,109,97
-86,-66,-11,-15,-22,-35,-106,-92
-27,1,-16,13,-7,-14,32,57
53,10,24,14,10,21,54,38
-34,-24,-8,-9,-5,-3,17,-5
38,112,95,36,15,0,-1,-6
-15,-108,-94,-39,-14,0,51,75
-50,10,-17,2,9,-8,-104,-118
84,127,55,22,8,6,2,36
-19,-111,-54,-14,-13,2,58,56
-8,-78,-6,-14,-9,-22,-81,-128
63,-36,-10,-10,-8,-13,0,123
3,50,8,5,3,13,-25,-33
25,23,19,25,18,42,88,32
-13,-26,10,5,-9,-19,-68,-95
-64,-71,-36,-10,1,7,44,-18
-4,-72,-17,-10,-17,-38,-3,-3
53,-29,35,12,12,20,62,100
-23,64,5,3,16,41,82,0
37,-49,-23,-15,-25,-49,-65,-62
46,42,30,23,14,7,-6,38
-40,-18,-19,-12,-19,-36,-79,-73
-1,24,12,10,-4,8,20,104
-15,34,8,-13,1,-6,-80,-119
31,13,24,22,31,64,127,127
-48,-59,-106,-27,-16,-55,-114,-117
28,21,24,7,-6,-29,-1,37
13,28,6,10,9,36,127,127
-22,-31,-25,-16,-20,-36,-27,33
8,33,21,-4,9,27,-69,-72
-1,-41,-2,13,-4,-17,-36,-43
-39,18,7,-10,-3,-2,3,3
5,12,7,1,3,12,26,18
11,8,20,8,8,23,80,71
68,100,76,24,9,3,-17,-30
-16,-18,-60,-21,1,13,39,-14
-12,2,-1,-4,-12,-33,-119,-108
-7,28,16,18,7,2,6,-5
6,-16,-24,-22,-11,-15,-61,-9
9,36,-11,13,12,43,104,90
4,32,36,9,7,7,33,10
-2,-46,-24,-25,-24,-40,-50,-38
-25,-21,9,4,9,29,86,65
18,37,43,18,-4,-27,-111,-99
-35,-58,-18,-5,-1,4,38,5
-4,31,17,-2,-5,-6,9,-35
0,-13,-19,-8,4,13,54,42
-15,-16,-7,-2,6,15,19,15
22,37,19,16,-8,-11,4,-23
-11,-4,8,-2,2,-1,-26,20
-39,-67,-68,-26,-11,-23,-92,-128
35,34,39,9,-6,-6,57,74
-55,10,-24,-8,0,-1,-6,-50
9,-2,-14,-10,-7,8,53,58
-3,-5,3,1,-5,-3,27,27
10,14,14,-1,2,5,-5,1
-7,-5,4,16,1,-10,-67,-58
6,-9,-16,-12,6,14,26,37
-3,20,29,28,11,8,-4,-1
-5,7,-13,-23,-9,0,48,34
11,9,-4,-9,-13,-20,-73,-26
-8,-21,-1,22,6,1,-14,-25
12,2,-8,-19,-8,1,54,48
-23,-31,-21,-6,10,3,-61,-77
16,4,9,5,-4,-1,40,25
17,13,-10,-15,-14,-13,-22,15
-22,-22,-13,-7,-7,-16,-39,-35
12,5,0,1,2,15,53,79
23,-24,-22,-19,-1,-4,12,38
11,10,6,-2,-7,-8,-60,-105
3,4,5,6,2,13,37,44
-11,-3,-21,-17,-5,-1,35,-6
-3,-15,-7,1,4,-11,-11,8
32,23,27,14,6,14,51,61
3,0,1,3,6,-9,-88,-45
4,19,11,1,-17,-24,-32,-12
-35,-48,-36,-10,-1,-2,10,-25
-6,-17,-19,-10,1,16,42,24
-2,-13,-19,-13,-2,5,36,20
-11,-2,12,1,-4,-7,-31,-35
2,9,11,16,1,6,17,31
-2,3,3,-1,9,10,47,61
6,40,33,0,-14,-33,-104,-105
-2,-10,-7,12,18,24,58,20
4,-1,4,-7,-11,-22,-80,-49
12,9,-35,-27,-12,-10,24,50
-18,13,21,13,8,16,29,47
-2,-2,13,12,1,0,11,14
12,24,17,-5,-2,0,8,2
-33,-48,-40,1,-2,0,-9,-25
3,-7,0,-6,-1,-5,-5,-43
-3,0,6,6,-4,-1,-7,-3
-18,-17,-23,-26,0,5,5,13
9,17,27,21,10,2,-1,26
-2,-19,-20,-5,-9,-10,25,10
10,18,10,2,-1,-8,-49,-43
-8,-24,-17,-2,14,23,50,37
-3,25,15,3,-7,-19,-70,-55
-7,-29,-14,-7,5,7,-30,-20
1,17,21,13,-4,-6,15,28
-19,-5,-9,-2,-2,-12,-14,-24
24,2,6,-11,-6,9,18,33
18,-3,-12,-1,8,13,36,20
16,21,16,2,-2,-5,10,31
-23,11,22,21,4,-7,-37,-12
-5,-26,-10,-3,15,37,85,3
20,42,-4,-13,-27,-39,-20,5
0,0,7,4,7,7,6,3
-3,-40,-9,-15,-6,7,21,-4
-18,5,16,22,3,-19,-1,45
-9,-14,-34,-13,5,19,8,5
-2,-4,-21,-16,-11,-15,-33,-61
-1,-1,11,5,2,-2,-30,-23
0,6,13,1,-7,-18,-43,-27
-7,-10,40,21,14,17,50,34
-2,5,-47,-13,3,22,60,58
18,-16,-17,-14,-14,-18,-63,-36
11,75,40,9,5,5,30,22
7,-17,10,13,3,-1,-29,-10
-19,-49,-46,-22,-11,-18,-1,87
9,88,6,-2,-9,-7,-12,-39
1,-23,17,5,1,2,9,1
10,23,41,13,15,13,-10,17
-6,-63,-1,17,15,12,50,34
27,47,-43,-24,-16,-12,17,8
-22,-40,-36,-18,-13,-10,-8,-16
-38,-39,-28,-15,-13,-26,-65,-91
13,97,25,17,11,18,32,4
-8,-58,29,9,-7,-18,-11,-41
17,127,33,4,8,11,12,-5
-34,-97,-35,4,8,15,59,107
-20,-86,-27,-16,-6,-21,-84,-106
-19,-57,-11,1,-2,12,55,33
-7,-1,-2,-6,-9,-18,-86,-58
-8,64,-10,-3,13,36,84,71
67,127,75,21,11,12,25,72
-52,-102,-88,-29,-26,-41,-51,-40
16,77,51,17,7,2,-24,35
-44,-66,-34,-17,-21,-29,-35,-51
-18,1,3,-3,6,11,49,12
12,44,24,21,22,33,20,56
-25,-122,-49,-15,-4,-6,-5,-78
22,74,52,16,-4,-17,-24,41
-32,-42,-39,-28,-16,-5,17,15
5,-32,28,28,12,-6,-74,-69
-7,44,2,-9,0,6,46,30
31,42,-27,12,12,24,39,1
-28,-101,-40,-24,-7,-15,-50,-1
55,127,23,9,-2,-3,48,58
16,81,28,3,2,0,-70,-23
-40,-52,16,26,18,31,109,57
30,63,5,1,-6,-18,-76,-97
-49,-107,-58,-19,-10,-1,-29,39
12,44,53,16,2,-15,-50,-81
24,33,-24,-10,2,4,-38,-1
-14,-10,38,25,-17,-41,-19,-4
21,1,14,-15,17,48,127,127
25,80,-11,-2,-5,-23,-82,-67
-9,-65,-28,-22,-18,-8,9,13
11,45,35,14,9,11,-18,-96
32,21,-11,-12,1,2,35,11
-9,-8,8,11,-4,11,69,97
6,-26,10,2,3,3,28,-16
-17,-34,-80,-41,-23,-33,-114,-46
-1,35,51,21,7,9,76,42
-21,-90,-72,-12,2,-3,-69,-41
13,43,22,4,1,-15,-53,-51
8,32,34,19,1,5,25,8
-22,-52,-39,-28,-6,-3,8,-4
7,17,5,-6,-14,-2,24,19
-9,-37,18,-1,-7,-13,-19,-18
10,40,-7,3,9,29,63,47
-2,33,5,-5,-6,-20,-62,-49
20,1,-30,0,-1,0,60,41
6,-57,-16,-3,-1,1,19,21
6,66,38,1,3,-2,-49,-33
-16,-21,-31,6,0,0,-18,-24
-4,-128,-13,-12,-9,-8,28,40
19,79,14,0,-1,8,-10,-8
-11,-94,-19,-4,1,-2,56,72
7,31,36,12,1,-8,-65,-57
-9,-23,-6,-6,3,23,85,84
-27,29,3,-3,-2,-14,-81,-34
-3,35,33,15,6,4,1,-8
-17,-64,-34,-27,-10,-1,8,12
-13,-57,14,19,5,-17,-23,-36
17,71,2,-9,-4,-8,46,77
8,-9,-17,-5,6,22,27,-28
-8,37,52,16,-1,-5,-80,-92
-26,-23,-28,-26,-10,-4,-2,-17
9,-1,-5,7,-4,4,38,30
1,-20,10,15,7,0,12,32
5,-4,-2,-13,-1,-2,18,0
-17,5,8,6,20,33,35,22
6,9,-8,-20,-35,-58,-75,-85
3,9,1,1,-5,5,-4,49
-8,23,-13,-17,-6,-5,-14,-27
4,-2,19,20,14,8,8,2
7,2,0,-6,3,18,62,57
5,-3,-21,-4,-7,-2,10,10
11,25,20,12,-2,-17,-36,-12
-7,-28,-24,-62,-21,-9,-4,-8
9,11,21,44,14,8,14,9
-22,-31,-42,2,3,-2,-3,-17
7,24,0,-5,4,15,43,35
5,-9,-13,-2,-9,-4,8,12
2,14,14,13,2,1,-21,-29
-4,1,-9,-18,-14,-12,-28,-22
8,12,5,-10,10,9,30,30
-7,-11,1,1,-17,-13,-45,-31
-5,1,-7,-24,7,3,4,-11
-2,3,-1,48,8,-4,-15,-15
-6,-9,11,-11,-11,9,57,38
5,12,23,42,11,-4,-16,-21
-10,-26,-37,-71,-8,4,12,5
-2,10,32,38,-7,-21,-75,-42
-4,-13,-45,-20,1,-1,8,26
3,4,12,8,-4,4,20,2
0,5,-21,-2,17,18,15,14
-6,-5,14,-28,-4,1,-1,-22
-4,-6,1,17,-7,-14,-8,7
-10,0,-17,-12,-9,-2,-10,47
5,11,21,13,-11,-18,-32,-66
4,15,22,-19,5,0,18,-32
-3,-18,-22,14,1,-3,-33,-14
8,8,-13,-12,3,15,30,15
-3,-8,17,16,2,9,59,28
20,29,6,-12,1,-8,12,75
5,3,43,30,11,12,-65,-108
2,18,7,0,-2,-3,35,87
-39,-37,-45,-18,-2,-13,28,-17
33,22,1,-5,-6,18,11,10
-16,-5,7,4,4,-2,25,30
-2,-13,-27,-17,-8,-12,-40,-20
7,6,23,35,2,3,21,29
-11,-10,-1,-14,3,-9,-31,-23
14,4,-12,7,-5,-2,32,30
7,12,16,-16,11,14,47,-7
-6,-2,9,42,4,-10,-61,3
-21,-28,-3,-7,-9,-12,-3,-34
20,32,-14,4,9,19,25,54
31,-7,22,7,1,5,-10,-47
2,-4,-15,-14,0,-1,-5,21
-24,-41,-26,-13,-2,-11,-41,-44
18,-2,6,2,3,-1,6,29
-46,1,-10,12,1,8,11,14
18,9,24,-6,-1,6,-50,-62
1,-14,-33,1,-1,5,35,16
-12,42,43,-1,1,-19,-19,2
18,-30,-27,1,1,-3,-26,-41
7,16,5,-2,-5,-12,-33,10
0,-7,11,-26,-5,7,39,27
0,2,-22,16,-5,15,10,-46
-4,5,22,-12,3,-1,45,47
-8,15,4,6,-2,-14,-87,-84
-5,-13,-24,-16,-4,5,21,25
8,-4,4,-9,-3,-8,-54,-64
-18,-1,2,-6,-7,-11,-10,-18
24,3,30,23,12,12,26,12
-5,18,4,-16,-6,6,-23,-38
16,0,-16,-6,-9,-6,21,29
-14,-15,-8,8,-4,-5,-1,-28
-3,13,-24,-27,-15,-16,-47,-54
-8,7,32,19,8,10,26,19
2,2,29,15,6,6,67,52
13,-20,-38,-13,-9,-6,-19,7
0,10,-32,-29,-3,8,31,33
6,-7,-8,9,4,-1,6,17
-19,-1,-6,-3,0,-12,20,21
-8,-8,-2,4,-3,-9,-48,-35
13,1,34,28,7,15,40,21
-6,1,-11,-1,-2,-20,-13,18
-7,-20,-28,-14,-3,3,-9,-14
4,-14,-15,-6,-1,8,24,58
-2,-6,5,-12,-4,-2,-17,-39
7,5,5,-15,-3,9,45,41
-11,2,16,23,-5,-15,-59,-51
2,26,13,14,4,-7,2,-30
10,-14,-32,-15,-18,-14,-32,13
-1,17,32,9,12,-1,-17,-29
-5,-9,13,-9,3,21,32,26
-2,0,-49,15,0,-10,-4,7
-12,-5,-9,-28,-4,0,-14,-22
-9,-12,0,25,2,-2,20,-9
-14,13,6,-19,-2,-5,-55,-21
-1,-12,14,4,4,-9,-33,-66
14,-5,-22,-1,2,12,55,51
-14,-9,-35,4,3,4,-10,20
3,4,16,-3,2,0,35,20
-9,-10,-4,-2,1,-2,-17,14
1,-2,-21,-5,0,5,12,24
17,13,6,-2,-6,4,-12,-6
1,1,-5,1,2,-6,4,15
16,22,31,10,13,37,29,7
-14,-8,5,1,-8,-26,-2,11
0,-1,5,6,-1,12,49,43
-14,-22,-25,4,-9,-29,-73,-100
2,6,19,-16,8,16,-11,5
2,14,13,26,2,4,41,32
-24,-27,-18,-36,-11,-26,-90,-84
0,-6,23,50,4,0,13,13
6,26,11,-14,-7,-6,13,-11
0,-1,13,-9,7,12,14,13
9,-4,-10,9,-2,2,34,18
10,-10,-29,-25,-10,2,19,19
-14,4,12,21,3,-19,-68,-34
-15,-11,16,0,-2,-5,-8,-3
-22,12,7,15,6,-2,-32,-67
25,-18,-23,-9,4,22,25,94
-40,-10,-7,-13,-10,-3,23,-40
4,4,15,-1,-8,-8,14,2
23,-5,-2,-2,0,4,-4,15
-19,-1,-6,-15,-1,10,46,49
5,-5,10,5,-6,-10,-40,-16
7,13,-18,1,8,13,-11,39
-15,-10,12,7,0,-12,-18,-22
0,3,23,-8,-2,-2,-15,-5
21,2,-11,-11,-7,-4,31,39
-8,4,-4,5,4,9,15,-17
11,-5,-12,-1,-3,6,10,37
10,2,-5,-12,0,4,27,6
-5,-3,13,4,1,-7,-18,-8
-13,-14,6,4,-4,-15,-9,-10
-5,-15,-26,-4,-4,-12,-38,-30
-12,0,-1,10,2,3,-10,-17
