-1,-3,30,0,-1,0,-1,-1
-1,-5,-70,-8,-1,-5,-2,-3
0,4,5,3,0,2,1,-2
1,4,-1,-8,1,-1,-1,1
-8,-2,-4,-3,-2,0,5,0
1,-13,12,0,-3,-3,-2,-1
-1,-2,8,5,0,-1,-9,-4
-3,3,-20,-5,-6,-2,0,-2
-2,2,-5,-7,2,1,-5,-3
1,3,12,2,-1,2,4,2
0,4,-12,-5,0,0,1,-1
-9,-15,41,14,4,0,0,1
0,-2,-57,-11,-4,-4,3,1
-3,-8,5,-3,-4,-3,-3,0
0,-2,-2,-2,2,0,-1,-1
-4,-9,8,1,2,1,0,0
2,9,15,2,-1,-1,-2,-1
-2,6,4,1,1,1,-2,-3
-2,4,2,-2,-1,0,-1,-1
-1,1,-9,-3,-3,-3,0,-1
-2,-8,-2,2,0,-1,-2,-2
4,6,6,-2,-2,-2,-1,-2
-5,-18,3,1,-1,-1,0,0
2,7,2,-3,-3,-5,-3,-3
0,-6,-37,0,2,1,-2,-1
-2,-9,9,1,1,-1,-1,1
2,8,-2,-1,-1,0,1,0
-2,-6,-3,-2,-2,-2,-2,-2
1,3,20,2,-1,-2,-3,-3
-3,-5,-4,-1,-3,1,1,-1
-1,18,30,1,-4,-2,0,-1
0,-14,-33,-8,-2,0,0,-2
1,6,15,1,1,-3,0,1
-1,-1,6,0,0,1,-2,-1
-2,-4,-22,-4,-3,-5,-2,-1
-2,-1,3,-7,-3,-1,-3,-2
-2,-6,-3,-6,-3,-2,-1,-1
-2,0,1,2,2,1,-1,-2
0,2,-1,0,-1,-2,-3,-2
-1,0,2,2,-2,0,-1,0
0,-2,-5,1,3,2,-2,-1
-2,3,0,-2,-1,0,-1,1
-5,-14,-7,-3,-3,-5,-3,-2
3,8,-6,-1,-1,0,-2,-1
-1,3,19,0,-2,0,-1,0
2,9,-16,-2,-1,0,-1,-1
-1,-5,-6,-1,-1,2,1,-1
-4,-18,6,-5,-5,-5,-5,-1
-1,2,3,2,1,3,0,-2
-2,-5,3,0,-1,0,1,0
3,2,-5,-1,0,-1,0,-1
1,7,-4,-2,-2,-2,-4,-2
0,-5,-1,-1,-2,-2,0,-2
-1,-5,20,1,-1,-5,-4,-1
-2,-1,-21,-4,-2,1,1,0
3,-3,-23,-3,2,1,3,0
1,10,2,4,-3,-3,-2,2
-3,-1,1,-10,2,1,-1,-1
6,0,17,-1,-4,-1,3,2
15,6,5,4,3,-1,0,3
-9,-3,-2,4,2,0,1,1
13,-10,-6,-4,-2,-4,-7,-7
1,4,0,0,1,3,1,-1
17,3,-4,-2,1,10,37,29
-39,-19,5,0,-1,3,19,-4
-14,14,3,4,-2,-5,-28,-13
10,1,-3,2,10,17,60,37
-6,-20,2,1,-3,-10,-24,-8
-8,17,14,7,-3,-7,-52,-29
45,-15,-7,0,1,10,91,55
1,-3,-5,-1,0,-14,-112,-62
18,21,9,6,4,6,62,21
10,14,-13,-12,-10,-25,-83,-24
-101,-5,-23,-13,-25,-47,-122,-80
44,7,15,9,9,29,95,93
1,35,21,3,-12,-21,-63,-101
30,-37,-28,-12,5,11,-26,40
-14,28,19,7,6,16,95,92
80,-14,4,7,16,40,110,112
10,15,3,-7,1,15,-93,-89
68,-23,11,7,-4,-19,97,-13
-96,14,9,6,-5,-9,-80,-36
-39,-18,-26,-19,-9,-20,-115,-45
44,-34,-4,2,12,34,127,127
41,41,-25,-21,-16,1,-56,-3
45,-44,10,9,4,-32,-73,-74
-20,22,7,7,0,14,71,53
-100,-3,3,-5,-14,-29,-127,-120
16,23,24,6,8,15,96,69
9,21,10,-1,3,21,11,-12
-18,11,-24,-15,-8,-30,-30,-67
12,-49,-35,-12,-10,-28,-60,-6
-48,13,20,16,17,29,72,38
19,-3,-5,-14,-4,12,-11,-34
-10,-9,27,24,0,0,87,34
-22,-14,-19,-2,9,-16,-69,-68
29,17,5,-8,-13,5,88,75
8,-5,-19,4,5,-18,-79,-77
11,18,28,2,-4,-9,3,10
18,-7,-2,5,0,9,85,68
-27,12,-6,4,2,-8,-118,-119
21,-4,-3,-9,-1,12,65,49
-32,-24,-15,-12,-6,2,52,23
-4,5,30,15,-9,-28,-53,-42
23,-1,-32,-17,-8,-7,-17,-30
-8,-14,-14,2,10,35,127,127
-1,32,19,9,-2,-19,-94,-70
-24,-16,-30,-5,3,4,5,4
-12,8,23,11,14,27,57,48
-12,-7,3,-8,-22,-31,-53,-40
32,-22,-28,-14,1,15,34,-14
-14,13,31,4,-11,-18,-69,-57
-19,-11,-23,-4,-3,-5,60,53
9,10,2,0,6,-1,-72,-70
14,-15,9,-4,-2,1,-2,6
-15,-9,-23,3,3,10,53,32
-32,-13,-9,-7,-3,-2,-26,-36
40,-16,-1,6,1,16,54,64
-10,7,13,9,2,7,57,44
14,-5,-33,-35,-6,-11,-39,-42
1,-11,21,10,0,-10,20,12
0,18,-8,-8,1,1,-42,-34
-21,-17,-9,5,-5,-11,20,23
8,37,26,5,4,6,-22,19
-11,-22,-18,-5,-2,5,-45,-82
5,7,7,2,-1,-9,-26,-8
-7,5,-10,-10,-12,-4,-28,-20
-14,4,3,10,10,19,86,64
4,-25,-27,-22,-12,-23,-86,-15
5,10,13,6,0,3,33,-4
-19,-1,12,2,-1,-12,-85,-96
9,-2,-55,-9,-1,0,41,35
-12,8,44,2,-1,10,44,44
0,-25,-23,-3,0,-1,19,5
-5,-2,-21,-14,-9,-18,-40,-4
13,4,15,8,-1,10,33,-5
1,16,-11,-1,2,-2,60,34
-3,8,17,-1,0,-2,-74,-53
-37,-34,-9,-4,0,11,59,9
17,-10,-6,-6,-17,-22,-53,9
-39,-7,12,10,4,-4,-17,-12
9,0,-10,-5,-4,1,37,49
30,-4,6,0,-2,-6,-21,-35
-22,14,50,6,2,9,29,23
32,6,-65,-9,-4,-9,-26,-20
7,-5,1,7,4,4,54,38
3,-17,-2,7,4,0,-12,44
-16,9,-21,-3,-5,0,-6,-25
14,-8,15,-7,-3,-4,-22,-5
-10,-16,0,-2,-5,-4,71,37
-13,12,-21,-12,-4,-19,-119,-54
17,4,23,16,13,26,55,37
-10,13,26,10,1,4,29,17
-27,-13,-18,3,-4,-11,-19,-34
-12,-11,-19,-26,-4,-2,8,13
21,30,22,6,0,3,-7,-13
-24,-37,-24,-4,-2,6,31,23
10,-9,-2,-2,-5,-23,-75,-47
7,12,10,5,-5,1,-12,-41
-15,-12,0,-2,3,11,75,70
-19,-9,16,5,3,2,-6,4
-7,1,0,-9,-1,-3,0,10
-4,-4,-12,-6,-3,-2,-17,-16
-4,11,46,7,-3,-11,-1,-5
-12,-47,-36,0,5,20,50,21
22,44,21,-6,-3,-11,-87,-28
3,0,-33,0,-2,-2,1,-13
4,-18,-2,-12,-7,-7,12,-13
0,28,29,6,-1,-10,-36,-7
-16,10,24,7,8,14,34,59
-4,-26,-19,1,-1,4,19,2
32,10,-20,-9,-5,-8,-10,13
-11,-12,3,6,1,-5,-15,3
14,-16,-7,-2,2,14,26,-26
-8,24,40,5,-2,-4,5,-7
-6,-10,11,6,5,4,10,9
16,41,-16,-10,-8,-18,-25,-8
5,-24,-46,-6,2,3,8,14
-2,11,34,9,5,0,15,-7
2,-39,-26,-3,0,9,17,10
-6,17,32,8,2,-13,-66,-24
2,22,29,-3,3,11,20,1
16,-19,-44,-5,-5,-4,25,7
-15,5,0,0,2,5,10,22
17,27,26,3,0,-2,-7,-3
-12,1,16,4,-3,-1,7,-14
9,2,-52,-9,0,-3,-28,0
16,8,20,4,3,-3,2,-10
-7,-40,-14,-17,-7,-8,-34,-20
4,4,-9,-4,-7,-2,10,10
-8,24,43,15,3,4,-13,-13
12,16,-26,4,7,3,-6,10
-15,-2,18,-14,-4,-2,-13,-19
8,-9,-8,10,-4,-7,44,47
-20,-23,-1,-3,2,7,-13,-40
-12,-5,-18,-14,-10,-15,-76,-44
-5,-5,7,14,7,1,13,-12
-1,-10,2,-6,1,14,41,-12
-8,12,0,0,-8,-11,-31,-14
-13,-23,-50,-22,0,5,8,4
44,17,11,22,5,-2,-23,-9
-52,3,-8,-6,-11,-12,-30,4
44,-14,4,5,7,11,33,2
-25,8,13,2,-8,-9,17,-9
-2,-24,-13,-36,-13,1,10,20
24,11,-8,16,9,4,20,24
-20,21,-7,3,4,-4,-19,-13
1,0,18,-1,1,4,56,78
-23,-33,-30,1,-9,-11,-47,-96
10,17,7,-11,-5,-4,-24,-16
-22,18,29,1,-4,-10,-4,6
3,-13,-11,3,2,11,32,-6
-1,4,6,12,5,-1,0,23
20,24,14,-2,1,6,7,-19
4,-8,-24,-20,-7,-4,-26,24
4,18,-10,13,4,6,7,-22
14,-8,19,7,7,11,50,33
-25,-29,-2,-2,-3,-8,-17,-8
-1,-11,5,-23,-6,-9,-18,-23
-1,17,43,27,5,0,-4,15
18,12,-52,-20,-3,9,24,10
12,-4,-5,-2,0,5,35,27
-1,30,26,13,0,-9,-46,-8
9,-41,-14,-18,-8,5,22,-9
-7,2,-6,0,-6,-1,9,38
19,7,8,8,-3,-14,-13,-20
-12,0,2,-2,-3,-9,9,21
-2,9,7,-2,1,1,-30,-18
-22,-6,1,1,-1,17,50,-23
-6,-10,-23,-13,-2,-4,-33,19
1,-16,3,10,-1,-2,21,20
-11,-2,5,-17,-6,2,-38,-45
-3,7,-12,9,9,3,-2,-17
0,16,-10,-14,-7,-3,-1,4
9,-15,-3,7,5,2,-15,-18
-10,-26,-5,-2,-4,5,34,20
-9,6,-7,-10,-10,-26,-78,-24
-3,-20,7,11,2,2,-5,-28
10,21,4,4,0,7,31,42
9,7,-26,-4,3,6,75,54
-17,-11,-2,-9,1,-15,-51,-55
3,3,9,10,-1,-8,-22,5
-17,-1,-4,-3,-1,0,18,-21
7,3,8,9,7,5,4,31
24,6,18,4,-4,-3,34,29
-8,-20,-10,-3,0,12,14,-17
18,-3,3,-9,7,0,-19,12
-9,2,-7,-7,-8,-11,1,16
13,22,2,-2,-6,-11,-65,-62
-20,4,-1,4,3,-4,-37,-26
-13,-1,2,-10,-9,5,46,25
3,-12,15,5,0,-15,-32,-28
2,-2,-17,-3,-4,10,48,14
2,9,4,-3,-1,1,33,34
4,-3,-10,-12,2,4,-4,-16
-10,-20,-10,-2,-7,-16,-51,-26
-18,35,6,10,-5,-11,-17,14
5,-21,6,-11,-5,6,4,-22
-13,-25,-9,7,7,-1,-7,11
-5,-4,4,0,0,-3,-49,-32
15,16,1,1,-1,4,41,33
5,4,17,15,10,7,6,2
0,1,-2,1,-7,-5,3,0
21,42,8,11,17,27,73,58
7,-35,-2,-6,-9,-10,9,-38
-34,-53,-27,-12,-6,-10,-40,-3
-2,20,12,4,-6,-5,-34,-22
14,85,30,9,4,-16,-104,-68
-35,-66,10,0,7,11,37,85
46,-15,-10,-3,1,11,70,-21
-58,10,26,4,-4,-5,3,-33
-20,-107,-80,-17,-6,8,42,1
75,109,80,12,13,20,23,94
-86,-78,13,8,11,2,-22,-45
55,91,-72,-9,-15,-13,35,106
21,9,56,-17,-22,-20,-81,-111
0,-94,-65,21,8,-1,62,62
-39,73,41,16,24,31,27,24
-5,-69,-98,-48,-28,-39,-66,-67
-88,70,59,-2,-16,-24,-72,-59
37,65,102,52,24,27,87,3
51,-58,36,-8,-9,13,98,120
-3,41,-10,-23,4,19,-19,-72
90,36,27,2,-3,-22,-54,19
-85,-117,-119,-35,-9,5,-34,-100
-38,104,74,24,10,-40,-93,-68
-6,-8,13,2,-14,11,71,-1
76,28,-2,2,6,17,38,93
-31,-21,25,25,15,27,52,-60
68,35,-56,-4,-2,2,18,72
-20,35,7,-13,-4,-71,-82,-99
-72,-78,-30,2,3,39,124,95
57,55,-26,-22,-22,-24,-31,37
38,76,5,-14,-5,24,47,-16
-114,-81,40,13,4,13,-39,-30
43,85,9,19,34,17,33,-12
39,35,-11,-6,5,-8,-76,-24
49,7,48,18,-13,-11,63,53
31,-49,-24,-29,-5,10,94,39
-49,-28,22,26,2,-21,-38,-42
6,-34,26,-8,2,33,67,63
54,52,-29,-12,1,20,21,29
-43,-54,10,-1,-22,-19,-5,69
-15,-95,-47,-10,-18,-40,0,-12
-13,69,-2,1,8,-14,-128,-107
42,-35,33,12,-3,19,91,62
-22,3,-47,-9,0,6,-27,0
30,14,55,5,4,9,-52,2
4,-4,-72,-37,-18,-10,15,-23
-29,4,-28,7,12,-29,-128,-128
44,-26,41,41,51,93,127,92
-27,59,26,-9,-24,-46,-117,-48
-48,-26,23,2,-19,-12,74,53
-31,7,-27,-26,-21,-44,-92,-49
23,-72,16,13,22,9,35,23
-42,-9,-15,-1,-16,-16,35,-33
47,-46,12,-6,10,41,104,120
-13,-107,-52,-30,-43,-68,-44,-12
47,23,69,32,5,-3,62,66
-28,19,-6,-34,1,20,107,41
-10,-33,-15,34,4,-16,-89,-56
-25,26,-24,-54,3,24,89,33
-16,-66,-16,26,7,-13,-77,-95
-29,-31,-6,34,15,-22,-88,-83
11,31,-36,-7,-7,-4,83,40
-22,-43,-43,-14,2,22,81,54
63,127,62,12,-8,-8,31,6
7,56,-27,-2,16,35,4,6
-28,-75,20,-15,-1,-2,-106,-128
31,65,25,13,-14,-27,-44,30
-9,5,-21,-32,-8,-1,-66,18
17,98,66,32,5,14,60,25
-57,-92,-58,-30,-4,-2,16,-33
23,25,13,5,-6,-21,-64,-4
19,0,-1,1,0,4,41,-1
-31,-71,-17,-13,-4,-13,-53,-66
39,-26,13,2,3,-4,64,16
-128,9,-22,-6,1,2,-93,-81
48,108,21,-7,-9,-16,-20,-17
-64,-128,-67,-29,-13,2,50,17
20,48,-29,-14,3,-11,-104,-13
28,39,38,35,22,14,21,-69
-7,39,-3,2,7,27,98,49
32,1,-5,-47,-21,3,-11,-13
-22,78,87,45,22,4,104,99
-33,-100,-47,0,-10,-12,22,10
10,-12,5,-3,-2,-11,-43,-32
60,-22,0,6,2,12,38,41
-1,23,4,-25,-8,2,-15,3
18,-8,0,13,-10,-18,-96,-48
-19,9,30,15,10,29,64,37
-56,-88,-56,-2,-9,-20,-90,-75
-13,60,-10,11,0,-3,39,35
-6,-12,10,-14,3,-7,-36,-54
12,-28,11,-11,-14,-4,2,15
21,22,-19,11,-1,9,60,43
23,-1,32,-2,-7,-21,-66,-42
1,-66,-14,11,12,32,95,85
-29,11,-15,-12,-8,-14,-17,-24
17,59,55,13,6,6,86,88
8,28,4,17,11,19,-31,-55
-9,-71,-21,-34,-11,-16,-47,-20
-5,36,18,39,15,3,-2,17
1,-48,6,-1,-1,-2,57,67
-1,43,-1,-14,-17,-15,-74,-58
-15,6,-19,-11,1,25,70,22
7,-19,4,-9,-7,-6,16,9
21,1,-25,-15,-1,-12,-67,-25
16,75,8,3,0,-7,39,48
-17,-43,-16,-4,-9,-6,-6,-22
2,-62,-33,-6,0,-3,-2,23
22,26,1,-17,2,10,11,4
-11,-16,14,-1,-5,-7,-15,11
19,89,45,31,11,7,12,-11
-46,-89,-32,-17,-14,-2,-4,7
2,-1,-7,-15,-6,-3,12,-39
10,31,44,-6,-7,-12,-24,21
2,-32,46,21,8,15,50,38
13,18,-7,16,9,3,-4,1
12,25,32,35,17,8,-9,-20
-47,-64,-30,-51,-22,-12,12,22
10,16,111,-12,-11,-9,3,2
23,59,39,57,22,5,-27,-44
57,21,110,5,-2,7,8,4
5,-104,-68,-43,-15,-8,8,46
-14,-6,-91,-36,2,6,0,-18
-75,-49,-78,-59,-19,-16,-26,-64
45,90,95,56,13,8,26,21
-8,-28,-23,5,-3,-9,1,2
7,58,16,35,16,9,1,10
15,-75,-38,-14,1,6,9,22
-32,0,63,-3,-15,-12,-9,1
10,51,55,43,25,16,7,-10
-13,-71,-52,-53,-35,-26,-12,-7
5,21,82,19,9,1,-8,-5
-23,-24,-26,-17,-11,-8,2,12
4,24,-31,26,8,0,-9,-21
23,79,94,42,21,14,24,20
23,29,53,35,4,1,-7,2
-25,-89,-128,-97,-26,-8,-7,0
-11,24,90,17,2,-3,1,-11
8,-18,-39,10,12,5,5,3
0,-4,28,4,-4,-3,-8,1
-2,46,-36,10,8,6,7,12
