-2,0,10,3,-3,-6,-4,-2
-2,0,2,0,-2,2,1,-3
-2,0,-5,-8,-3,1,0,-2
-2,1,2,1,-2,1,-1,-3
-2,-4,-3,-2,4,-5,-2,-2
-2,0,2,-7,-14,-2,-2,0
1,-1,-2,2,10,3,-1,0
0,-1,-5,0,6,-1,-1,1
-1,1,2,2,1,-2,-3,1
-1,-2,5,3,-1,2,2,-2
0,-2,2,-7,-9,-2,-3,-2
-3,-3,-7,-7,-2,-1,-2,-1
1,-2,-1,0,-3,-3,-3,-2
-1,0,3,0,2,0,-1,-1
-2,-2,-8,-1,-2,0,0,-1
1,-1,-3,-2,0,-3,-2,0
1,-1,-1,-2,-1,-1,-1,0
-1,-1,4,0,-1,-1,-1,-2
-1,-1,-1,2,1,2,-1,-2
-2,0,3,-1,-2,0,-2,0
-2,-3,-3,-3,-2,-4,-1,0
-1,-2,-9,1,-1,-1,0,0
-1,0,-1,-1,1,1,-2,-2
-1,-1,3,-2,-3,-1,-2,-2
0,0,1,-2,-4,-3,-1,-1
0,-3,-2,1,2,-1,-3,0
-1,-2,1,0,-1,-1,1,0
-4,1,-1,-4,-3,-2,0,-2
1,0,-2,-2,-1,-1,-2,-1
-3,-2,1,-1,1,0,-1,-3
-5,-3,0,0,-2,-2,-1,-1
0,-4,-1,-5,-2,-1,0,1
7,-6,-5,0,-3,-1,-3,0
1,2,3,-1,-1,2,-1,0
0,-1,-4,-2,0,-2,-2,0
3,4,1,1,1,0,1,-2
-5,-2,-1,-2,-2,-1,-1,-2
0,-2,-1,-2,-1,-1,0,-1
1,-1,-2,-7,-6,-2,-2,-1
-2,-4,-4,5,2,1,-1,-1
-7,3,6,5,8,-1,0,-1
1,-1,-1,-1,-1,-1,0,-1
-6,-4,-1,-2,-2,-2,1,-2
-6,-10,-9,-5,-4,-1,-4,-4
-4,6,4,-3,-2,-2,1,0
-2,-9,2,0,-3,1,0,-1
-1,10,7,-3,-3,-3,-3,-2
6,5,-25,-7,-1,-1,0,1
5,-9,1,7,-3,1,0,0
-14,3,7,0,2,0,0,0
9,1,6,-4,-5,0,-2,-1
-3,-3,5,0,4,-3,-4,-3
-5,1,-2,7,13,5,0,-2
1,-6,-8,-4,-2,-1,-1,6
1,3,3,3,-4,-2,2,-1
-1,-5,4,-5,-3,2,5,2
-3,-11,-12,-17,-11,-3,-12,-5
-11,-3,3,-2,3,-4,-1,-5
1,1,-7,-6,2,10,21,-1
6,1,8,16,6,4,12,7
-1,8,-1,1,-1,2,13,1
2,-3,-3,1,-2,-10,-10,-9
-6,1,-12,-4,0,-9,-23,-8
-5,-4,-5,-39,-25,-4,47,13
-2,3,1,28,24,7,-10,-1
6,5,16,18,4,9,21,10
2,-5,-28,-13,-10,-1,9,-6
-4,-7,-7,-3,17,-5,-15,-16
-6,-1,-15,-23,-11,-7,7,2
-3,-1,7,-11,-19,-20,-19,-3
1,4,43,16,5,24,-3,1
4,6,-25,9,14,-8,-12,4
-9,-21,22,-19,-29,2,-9,-11
-12,0,-36,39,51,6,-16,-15
18,2,47,-5,-26,-12,37,14
-11,0,-16,-3,20,17,-42,-4
11,-6,4,16,3,2,26,-1
5,39,29,-22,-28,-2,-15,6
0,10,7,24,26,-4,14,0
9,11,10,17,-7,-15,-36,-18
0,-4,-37,-35,-11,-13,-40,18
0,-28,-4,18,11,11,38,5
-16,44,-11,-42,-34,-16,-42,-16
6,-2,45,39,54,13,16,-8
5,11,64,20,8,2,-34,-12
21,24,-6,19,-5,-4,30,27
-22,-29,-49,-22,1,-4,-14,-12
-10,-24,-38,11,-12,3,-36,-6
-2,20,-16,-67,-11,4,68,0
-11,-33,62,-9,-7,1,19,3
16,-23,-3,47,28,2,-9,7
-7,35,17,-66,-52,-15,30,-2
-3,-9,10,60,28,22,22,9
-16,14,-52,-30,-18,-17,-49,-62
16,-9,-9,-39,3,-11,-52,38
-17,-9,-6,25,-13,0,30,6
4,-21,-37,-17,-16,-16,-15,10
-8,-46,3,20,20,9,29,2
-25,-2,6,-35,1,2,0,-23
31,-12,-9,-15,-19,-6,-8,1
0,21,-22,-15,-6,-13,-15,-16
3,30,15,49,33,17,-2,11
13,-24,73,19,-13,-11,-5,-14
-2,-26,-53,31,9,3,19,12
-27,-33,-7,-81,-54,-22,-47,-23
30,28,-29,41,31,16,-4,14
2,19,-3,44,18,7,28,0
-17,51,39,-28,13,9,44,17
11,1,-13,22,26,-7,-20,-14
-19,-6,8,-19,-54,-17,10,-15
-3,10,0,-4,9,-6,-77,9
-3,12,34,-6,-7,1,44,3
-46,-19,-52,-1,-2,9,18,-9
26,32,10,-53,-12,-3,19,11
19,14,-2,57,29,9,63,-14
19,-23,1,-53,-22,-16,-80,11
0,21,5,7,-5,19,72,17
17,12,4,32,16,-11,-84,-8
-26,-21,-75,-95,-62,-12,15,-14
-10,64,64,89,49,16,10,-10
23,-7,-8,34,33,5,4,7
0,-34,-9,9,-7,18,37,17
-9,-63,-30,-35,2,-7,-14,0
-79,-64,7,-12,-39,-13,-6,-49
90,-42,44,62,24,8,-54,30
49,-20,-62,-65,-22,-3,82,79
-7,-23,4,83,63,8,-69,-2
-51,54,26,0,14,10,52,-10
-32,9,18,3,-7,-2,-29,-12
16,5,-9,-57,-22,-1,19,0
2,22,2,-2,-13,2,13,1
-65,-43,-31,-36,-28,-24,-64,-40
44,7,13,68,38,13,48,-20
4,9,54,-23,-23,-18,-82,20
-23,-5,-41,-24,-15,3,-2,-19
-28,10,-6,17,-3,0,8,-66
-49,23,13,-22,12,-19,-97,45
24,-77,-15,89,18,6,47,14
35,48,15,-46,8,5,10,1
48,-11,-26,-39,-31,-6,-51,-27
7,-34,-4,53,14,0,-7,-46
-78,-8,-52,11,6,-15,-49,-80
75,-9,2,23,24,-7,25,92
-52,36,9,1,-22,9,7,-56
106,-6,-44,-100,-34,-9,-59,40
-85,4,55,88,38,-24,-32,20
-126,1,-13,20,-17,-6,-2,-31
63,4,-17,-18,1,31,19,12
-33,87,31,12,-3,-4,81,16
63,31,-18,-103,-75,-9,0,-98
-60,7,-13,6,41,-7,-41,51
46,-29,12,46,3,-1,-38,42
-60,29,8,9,-2,-7,-13,-86
40,104,26,11,18,18,53,88
30,43,9,-33,-34,8,24,-46
13,-82,-65,-14,4,-9,-7,-7
-13,-53,-15,21,-6,7,-19,-30
48,-14,2,-4,5,4,61,6
-25,25,-10,-37,-34,32,71,-36
-11,122,17,26,56,-15,-78,35
126,-95,0,4,8,7,46,106
-124,-22,-19,-35,-5,-15,-71,-97
47,-53,-30,-27,-15,15,47,-42
0,-48,38,74,23,-14,25,91
-128,106,-14,-16,7,18,60,-83
9,-37,40,0,-7,-26,-96,80
-70,108,14,-1,-13,13,107,-20
12,-2,-25,-14,17,-11,-100,28
-11,-51,0,-54,-22,-19,10,22
7,41,24,44,4,27,36,-16
-50,17,10,21,-31,-33,-65,-34
-43,88,-10,-40,-17,6,2,-25
62,-35,7,2,-17,-30,-59,28
-5,58,-4,15,23,7,25,-37
21,-128,-22,3,-10,-15,-21,36
-46,19,25,25,9,5,37,-27
26,-8,-29,-83,-74,-45,-80,-42
-85,-59,15,6,16,16,71,32
-2,-4,30,100,44,18,2,27
41,-37,-15,-56,-36,14,86,17
-60,16,-18,16,32,15,-63,-54
8,47,-27,-57,-27,8,65,-50
57,48,53,14,15,-8,28,109
22,-103,-40,-64,-28,-16,-53,-31
-34,112,35,55,6,9,52,45
43,-67,-31,-54,-34,-17,-65,-54
63,-23,-30,-32,-33,-1,-15,-37
-17,-5,-9,43,55,23,18,5
-78,0,8,-10,-30,-4,36,-4
32,54,17,-8,10,15,-18,-10
-23,51,34,31,19,-13,-22,14
3,65,3,6,-19,18,125,-45
72,-112,-1,33,63,18,12,59
-30,31,-12,-14,-5,-7,9,36
-57,56,24,24,-13,7,32,-25
34,12,6,1,-24,-7,-26,25
-64,58,-7,-52,-12,6,44,-59
2,-64,8,42,35,-5,-45,17
5,-43,-16,-16,13,-3,2,-44
-6,-70,8,53,26,-6,-25,31
43,-39,6,7,-3,-3,27,23
0,-6,-6,20,13,12,18,19
-20,27,-25,-54,-29,-37,-117,-46
-22,14,0,-19,-27,-6,14,-35
85,-19,8,8,7,8,9,51
-59,67,-6,17,18,12,16,-6
68,-97,-26,-6,9,4,17,-20
16,25,13,-31,-20,-10,27,33
-109,44,-1,12,-3,-13,-59,-60
68,-78,-18,-40,-19,-7,2,61
4,31,15,25,11,4,-19,44
-24,21,-4,-32,7,-13,-57,-24
-8,74,5,14,-12,7,0,26
-119,-50,-23,-23,-17,-17,-68,-84
-21,24,12,21,24,11,11,5
3,-23,-3,7,-8,-18,3,-2
6,127,-7,-49,-25,-10,-14,-45
-12,-40,15,47,17,0,8,9
77,-40,0,-5,6,-11,-62,40
-26,-43,-4,-3,-10,1,14,-7
-35,1,1,12,-7,-1,18,-33
24,41,26,13,-2,2,2,39
64,19,-29,-3,2,10,34,-26
-22,-70,-26,-27,-18,-16,-33,-12
-5,-91,-1,6,-2,7,70,0
-18,55,-12,-37,-31,-35,-100,-22
-54,26,24,-3,-8,-18,-4,-1
28,21,-3,16,-8,-1,1,7
91,-68,-10,-35,-32,1,19,7
-7,10,2,59,49,27,53,0
-46,0,-4,23,-2,10,12,-24
9,74,22,24,18,17,58,32
-2,-78,2,-1,13,-13,-36,15
20,43,-10,-22,3,2,3,-9
-6,58,16,21,1,3,-58,-11
-3,14,-10,-7,1,6,-21,17
-52,59,3,18,18,0,-5,-34
36,-109,-13,-17,-16,8,13,-3
-26,-37,-24,-15,-3,2,19,-7
-3,22,-7,-17,6,0,-26,28
-16,46,15,0,7,1,10,36
32,-28,-18,-17,-20,-7,-22,-28
-20,18,13,-4,-9,-7,14,19
17,-25,3,11,-12,7,41,-26
11,-42,-14,-5,27,3,-30,13
2,51,12,-33,-3,7,50,26
-22,-80,-15,37,10,-3,-50,-35
29,-20,19,15,24,-6,-10,4
-8,-17,-8,14,1,10,37,-9
-27,54,-30,-55,-49,-16,-8,-31
-9,29,19,2,46,30,59,61
33,-36,9,17,18,-4,-12,8
-10,-5,9,-16,-6,-2,-12,-13
9,-10,3,24,8,5,-1,-19
-11,45,-8,-43,-28,-14,14,-8
-26,-8,-3,18,-2,2,-4,-28
41,14,22,7,27,17,31,52
10,-10,1,1,0,-7,4,19
-38,14,-4,1,2,-9,-25,-19
32,-62,-1,-8,5,-1,11,12
-15,86,-5,23,19,8,17,-53
-26,-18,6,-8,13,1,-25,40
65,-80,11,40,15,14,60,29
-24,23,-35,-56,-35,-15,-22,-24
-12,-32,15,57,38,4,-4,7
1,-1,-4,6,4,-5,-13,-11
10,47,-6,-36,-31,2,53,-22
-14,16,-2,28,54,14,-38,-2
15,2,-6,-41,-56,-8,-16,5
-37,5,2,4,12,4,-24,-23
-36,-20,-3,-2,-10,-12,-17,-25
49,98,2,-16,-13,14,25,56
42,-70,1,15,-4,-11,-6,27
2,6,-4,-27,-16,2,28,-59
28,-6,11,6,18,7,34,57
-16,-30,12,7,-16,-16,-4,-26
-22,24,-13,14,18,9,28,11
-6,-4,-1,-16,-40,-24,-32,-31
0,-31,-7,-6,9,-2,-5,11
-25,21,-1,-32,-8,-23,-43,-11
-6,-16,5,43,5,3,-5,3
2,80,32,33,16,12,58,26
-20,15,3,-7,-8,-11,-41,-20
-12,-19,-25,-51,-30,2,5,-7
-39,75,-9,-105,-64,-15,-34,-90
26,-31,21,83,48,4,10,95
10,-11,-7,-10,-26,-6,38,-35
-4,-42,-5,-9,-12,-10,-80,7
-97,11,-34,-37,-41,-1,19,-118
105,-54,35,36,46,31,110,96
19,14,2,-31,-8,1,82,53
26,0,22,49,35,10,-17,-4
-19,14,11,21,14,-6,-20,8
-43,-38,-41,-42,-30,-15,-78,-82
-50,57,-21,-26,-8,4,-51,-84
1,-44,18,14,-1,-12,64,11
45,-20,-4,-1,-1,-4,-10,81
-5,-12,4,19,11,11,57,11
-39,35,-3,-3,-18,-9,2,-36
81,-60,12,20,7,-12,-67,-38
25,1,8,-1,22,7,42,106
-4,-11,-25,-41,-29,-25,-43,-19
-83,95,26,30,21,8,-12,-4
47,-17,-26,-30,-5,7,63,-49
49,-34,24,94,64,9,-40,31
-29,-5,-24,-22,-15,4,31,-61
74,-10,9,-16,1,3,-62,41
-56,35,6,10,2,-15,-6,-82
44,-14,-5,-21,-14,2,35,87
-86,23,4,-13,-27,-15,-52,-45
20,-45,-33,-46,-4,8,20,-23
-20,20,13,34,4,9,49,56
2,-46,-14,-6,-6,-5,-3,-42
-5,56,13,5,7,7,6,20
-7,-25,-10,-20,-22,-17,-80,-9
-3,9,-2,1,0,10,12,29
-42,30,-3,-15,-11,-4,-17,-50
23,-17,0,9,16,-2,-17,15
12,-13,-1,7,-6,1,14,-1
-15,17,-1,2,1,7,27,18
-13,-35,-3,-5,-12,-15,-47,-29
10,-7,-3,-15,-11,-5,9,-2
15,-37,-7,23,15,0,10,14
-25,15,8,-2,-13,-3,-18,13
12,-57,12,-14,-5,0,16,-9
1,-30,-10,-2,7,4,-10,7
2,-55,10,17,-3,-4,-5,3
-18,-4,9,7,4,2,-4,-4
-3,35,-14,-13,-12,-2,-1,-12
27,69,19,4,6,3,4,17
-8,-22,-83,-21,-7,-9,-21,-10
5,-15,28,-7,-3,1,19,19
-23,-33,44,11,2,-2,3,-5
24,77,-22,-6,-10,-6,-22,14
-16,89,42,20,4,-7,8,-20
-13,-49,8,-8,-5,2,5,-5
1,38,-25,-17,1,18,9,20
-20,51,-48,-14,-1,-2,-3,-4
13,127,25,10,-1,6,4,28
4,124,-7,16,1,-6,0,-16
-2,-55,14,21,-1,-10,-19,-30
3,-91,-14,-15,-2,0,-6,-4
16,-58,18,6,2,-1,-5,1
-15,-43,-9,-11,-3,0,-4,-6
7,-1,-52,-1,-4,-2,2,0
-2,-23,-18,-12,-4,1,-3,-5
-1,-60,106,25,2,-2,-2,-1
-4,-21,-46,-2,2,2,-1,7
0,6,-15,0,0,0,3,-4
-4,-33,-31,-9,-2,-5,-2,-15
0,-62,27,3,-2,0,-5,-4
4,29,30,4,1,2,5,18
0,11,-29,-18,-8,-6,-3,-10
-10,-11,40,19,5,0,-5,-2
8,-9,-14,-15,-1,0,3,9
-4,17,-5,8,0,0,1,-7
-5,13,7,-4,-4,-5,-4,-6
0,-13,16,4,-2,-1,-2,-2
-3,-14,-55,-17,-1,0,2,5
-8,9,17,6,-1,-3,0,-1
4,14,24,3,-1,-3,-5,-4
2,5,14,6,2,1,1,1
3,-7,-29,-1,1,-1,0,0
-1,8,-17,-15,-5,0,-2,1
-3,12,18,0,0,-2,-2,-2
3,1,-14,-6,2,-1,0,1
-3,-8,6,5,-2,-1,-1,0
-2,4,0,-3,-3,0,-2,-1
-3,7,4,-3,-5,-3,0,-2
-2,-4,20,13,3,-2,-2,-1
0,-17,-21,-18,-2,0,-2,-2
-1,0,-8,-5,0,1,1,0
0,2,-4,-3,-2,0,0,0
2,-3,14,8,0,0,-3,-2
0,0,7,7,0,2,1,0
0,-2,-30,-14,-2,-1,-1,0
-2,4,11,4,0,-2,-1,0
-2,-4,-1,3,-1,-1,-1,-1
-1,1,-2,5,1,0,1,2
-5,-3,18,8,0,-1,1,-2
-2,1,-31,-15,-2,0,0,-3
1,1,23,10,1,-1,0,0
-2,-10,-56,-17,-2,-1,-1,-1
2,5,41,20,1,-1,0,0
-4,-9,-14,-1,0,-2,-2,-3
-1,-2,-12,-7,-2,-1,-1,-1
1,2,31,19,2,1,-1,0
0,-2,-31,-12,1,2,-1,1
0,7,2,-9,-4,-1,0,-1
-3,-5,-9,-12,-5,-3,-2,-2
-1,-1,-7,-3,-1,-1,-1,-1
0,0,22,3,-2,-1,-1,0
0,1,19,5,1,-1,-4,-10
-1,0,1,4,-2,-1,-7,2
3,0,-26,-8,1,1,16,8
-1,-1,-12,-7,0,-1,-1,0
-1,-3,-1,-1,0,-1,-1,1
-2,-7,4,0,-1,-1,-1,-4
-3,2,4,2,-2,-3,-5,-4
-2,0,7,0,-1,-2,-2,-2
