-3,0,29,5,-2,0,-1,-2
-2,7,-1,3,2,0,0,-2
1,21,22,-1,-1,-1,1,0
6,7,2,-6,-6,-1,0,3
-1,-2,-10,4,10,1,0,0
-1,-8,-32,-5,-3,-5,-3,0
-1,-4,11,-2,-10,-5,-4,-2
-3,6,-13,2,14,9,2,-3
1,7,-3,19,13,3,1,-2
-3,0,26,9,-5,-3,-1,-1
-2,-4,-11,0,1,1,0,-1
-1,0,-12,-19,-7,-4,-2,1
3,6,15,-6,-7,-1,0,1
0,-4,2,14,8,1,0,0
0,-8,-48,-10,-3,-1,-1,-4
0,-12,76,5,-6,-1,-2,0
-1,14,-5,-8,-5,-3,-3,-3
-3,-5,11,0,-1,-2,-2,1
4,6,-50,-10,-2,1,2,0
-7,-4,18,14,4,1,1,-1
-3,0,-12,-21,-16,-7,-2,-2
-4,-14,5,2,-1,-1,-1,-3
3,18,12,17,12,4,0,-2
2,11,1,5,4,2,0,-1
1,-12,26,1,-6,-2,-3,1
-3,-11,-29,-17,-12,-5,0,-2
-7,-15,4,-9,-6,-6,-4,-2
0,12,-5,-8,-5,-1,-2,-3
9,42,41,19,15,5,3,1
-9,-31,-52,-8,-2,-2,-1,0
-3,-4,10,11,0,-2,0,1
-3,0,-11,-21,-12,-7,-4,-2
-3,-11,-41,-3,-3,0,-1,-1
0,5,50,7,5,1,-1,-1
-3,3,7,4,4,1,-1,-3
-4,-23,-9,2,-6,-3,-1,-3
-4,-29,-23,6,-7,-2,-2,-1
2,5,6,3,5,-3,-1,-3
-2,-3,-35,-5,-2,1,0,0
0,-1,-23,-11,-2,-3,-2,-2
0,-4,17,-7,-5,-1,0,-2
1,-6,-22,-9,-5,-1,-1,2
5,27,59,6,-4,-4,-1,1
-5,-40,-8,8,12,6,-1,-2
-3,7,-1,-8,-2,-3,-3,-1
2,8,34,9,-1,0,1,0
1,-2,3,-15,-6,-3,-1,0
0,-7,-28,-6,-5,-3,0,0
-5,-14,-3,-9,-4,-4,-1,-3
-3,-3,-15,10,0,0,-3,-1
-3,-3,2,7,0,0,-1,0
2,11,-14,-5,-3,-2,-1,1
-1,1,-21,-9,-1,0,0,-3
5,14,18,-3,6,2,1,2
-3,-22,-5,27,11,1,0,0
2,-3,-56,-14,-3,-1,-2,1
-8,0,73,5,-7,-3,-2,-5
2,2,-33,-15,-5,-3,-2,-1
-1,-18,14,-2,-1,1,0,0
-2,-9,-3,7,-1,-2,-1,-2
-1,-23,-50,-10,-3,-3,-2,-1
-2,7,-39,-8,-6,-3,-3,-2
-4,-7,12,3,-3,0,-1,-3
-4,-1,-39,-9,-9,-4,-3,-4
2,8,-9,1,16,2,-1,0
-6,-18,9,-16,-8,-4,0,-1
-2,-8,-29,41,15,4,0,-1
-2,17,23,-8,-21,-8,0,-2
6,18,73,28,21,5,3,3
-1,4,0,-7,-1,-2,-3,-1
-1,-3,8,-11,-4,-2,-1,-2
-1,5,-9,-7,5,1,1,0
-1,-3,-5,-15,-9,-3,-1,-1
1,1,15,3,-4,-2,0,1
-3,-7,-7,-6,5,2,0,-2
2,17,16,3,7,0,0,0
-7,4,10,1,-15,-9,-6,-5
-1,15,-12,-9,-2,0,-2,-2
-3,-24,-36,-14,-8,-3,2,0
3,22,41,7,13,2,0,0
2,2,-3,0,-6,-1,-1,2
-1,0,11,17,8,3,0,0
4,20,5,-6,-7,-6,-4,0
-4,-7,63,-5,-8,0,-2,-2
0,-7,-78,1,15,3,1,1
-4,-17,3,-5,-13,-7,-3,-3
4,13,29,2,28,8,1,1
-1,10,33,12,2,-6,-3,-3
-4,-21,-18,-4,-11,0,0,-4
2,18,24,6,1,-1,0,-1
-1,5,-3,-20,-20,-5,-2,0
0,-3,-35,19,8,2,-1,0
4,13,41,0,13,6,3,3
-3,-9,-29,2,1,0,-1,-1
-3,-4,8,-20,-14,-6,-2,-3
6,2,9,4,2,1,1,2
-5,-11,-16,-4,-10,-5,-4,-3
-1,-3,26,9,-2,0,-1,0
1,15,23,0,6,0,0,-2
-3,-8,-10,0,-5,-5,-1,-1
7,21,12,8,0,0,0,1
-7,-25,-64,-32,-12,-4,-7,-4
-2,12,18,-31,-37,-7,-3,-5
-4,-31,-38,40,21,8,2,1
-4,4,21,32,36,4,0,0
5,16,11,-10,4,0,3,3
-5,-14,-28,-8,-11,-8,-4,-4
0,9,10,-22,-15,-4,-2,-1
0,10,-15,-2,-18,-3,-2,-1
1,8,4,6,-5,1,0,-2
-1,0,10,10,17,5,0,0
-1,-4,-8,-34,-21,-7,-2,-1
-2,-11,-7,5,8,-1,0,-1
2,12,37,24,-5,-4,-2,-3
-2,-16,-28,-4,-4,0,-2,0
-3,-6,-16,9,24,3,-1,-1
-1,-4,7,-12,-8,-2,0,-1
1,6,-6,-15,-8,-2,-1,0
-5,-28,-45,14,3,-1,0,0
6,30,35,8,5,2,1,1
-4,-11,-37,-44,-35,-9,-3,-4
-6,-28,25,12,8,-1,0,-2
0,-7,-8,-13,-2,-2,0,0
-1,-18,-30,20,13,1,-1,0
-2,-4,17,16,14,3,0,0
0,9,1,4,18,2,-2,-1
-1,-3,25,4,0,0,-2,-2
-4,-11,-22,-27,-18,-4,-1,-2
0,5,-19,-8,-11,-5,-1,-3
0,-10,8,3,4,1,1,1
3,15,2,-7,-13,-1,-2,1
-3,-21,-42,-3,-1,0,0,5
-2,-14,4,-15,-6,-1,-5,-4
-5,9,62,80,22,2,-2,-10
-1,-8,-18,-35,5,-1,-1,-2
-1,9,-17,20,-19,-7,-1,0
2,11,18,-21,-5,-2,1,4
-1,3,-6,-10,-3,3,-1,2
3,10,-18,-5,-6,-1,0,-1
-10,-1,65,14,-3,-3,-2,-3
-3,-21,-55,-19,-14,-3,-1,-3
8,7,25,3,4,2,1,1
26,12,-23,6,2,0,-2,-1
-42,-22,41,-35,-25,-3,0,0
-13,-30,-13,44,54,3,-3,-3
-8,3,-23,-17,-2,-6,-4,-5
-2,8,22,24,-1,-3,-2,-1
28,35,5,-15,-1,0,-2,0
-6,-17,-16,19,10,6,1,-1
-11,-49,-57,-34,-10,-3,-2,-2
1,-2,40,3,23,7,2,1
9,22,6,10,27,5,3,-1
0,17,-16,-34,-34,-8,1,1
-1,14,15,24,12,-1,-2,-1
-14,-5,-15,23,6,2,0,-2
2,-15,-10,-25,-16,-5,-2,-2
5,5,6,-20,-21,-2,-3,-1
14,24,4,-5,17,4,3,6
-12,-13,-12,-4,-12,-7,-4,-6
2,-19,-15,20,-5,-1,0,-1
19,21,-18,7,7,0,0,-2
-6,-26,-72,-12,-3,2,2,5
-26,-12,77,15,-5,-3,-2,-1
-19,-34,-74,-47,-2,-5,-5,-7
8,10,15,-1,0,2,-1,1
-3,14,48,20,10,2,1,-2
9,18,-4,17,23,3,2,2
10,-15,-33,-10,-14,-2,-1,-1
3,44,58,21,-14,-6,-2,-4
-10,-20,-29,-56,-13,-4,-2,-3
7,16,-11,10,-10,-3,-2,1
-3,-6,35,-7,4,5,3,1
29,55,22,70,39,7,2,1
-14,9,17,-7,-10,-4,-6,-13
-26,-61,-45,-23,-11,-4,-3,3
68,66,26,-1,-15,-5,2,25
-9,-40,-75,-3,-10,-2,-2,-3
-20,11,28,-15,-12,-4,-2,-3
25,19,-20,-10,5,4,2,-5
-24,27,8,50,30,7,2,-5
-1,-56,18,-5,-25,-11,-5,0
-31,-31,-42,-45,-26,-6,-3,-7
-17,8,-44,23,9,1,-3,-9
68,17,-9,-34,-4,-2,-2,1
-23,68,68,40,15,6,8,6
29,-53,-22,8,-10,1,5,13
-69,13,-10,-45,-16,-4,-4,-7
-39,22,79,37,-1,-13,-15,-21
-22,-61,-26,-47,-10,-3,0,0
93,67,-59,13,-22,-8,-7,-6
-63,59,74,-5,9,8,4,-1
24,75,83,14,13,2,-5,-14
4,8,-30,-36,1,-3,0,7
78,-98,-83,32,16,4,10,27
-48,20,14,-31,-11,-5,-7,-17
-65,-60,-25,44,5,5,3,2
55,33,-4,-1,10,-1,-11,-22
33,-44,-34,-30,-23,-2,4,12
-44,-12,13,22,-4,-6,-3,-9
73,-25,-109,7,53,8,4,9
-95,-85,-7,-2,-32,0,23,18
12,102,52,-36,22,3,-25,-28
67,59,76,55,27,8,7,17
-51,-59,-61,-35,-24,-7,16,16
-67,-52,-21,-58,-47,-12,-31,-40
-7,-18,36,56,35,-2,2,12
36,-24,24,10,-12,-5,-12,-20
115,38,-60,-38,6,0,4,22
-16,-42,24,-35,16,3,2,-2
-73,36,99,-16,-72,-8,-4,-26
76,14,-3,30,46,19,14,35
40,45,91,-4,-22,-12,-5,1
-63,10,25,-8,16,5,1,7
-27,-19,-34,1,14,-7,-7,-12
17,25,46,-17,-21,-5,0,-24
-69,-9,37,-19,-19,5,-5,-7
62,111,31,54,-32,-21,-3,14
-15,-59,65,57,53,19,10,9
13,3,-12,-126,-53,-22,-25,-3
-114,-30,-43,90,69,13,-14,-31
52,87,43,46,45,9,-8,-20
-22,0,49,-63,-37,-7,5,6
28,-68,-53,84,-26,-4,14,13
47,27,-4,-118,-42,-5,18,63
53,57,17,23,12,5,-8,-31
-27,-32,-20,50,-17,-6,-6,-8
-101,-65,-79,3,34,8,-2,-12
-78,-39,-36,-38,-35,-12,-10,-25
18,-23,-28,-38,-3,6,14,12
-2,-1,-30,35,18,3,16,-1
24,28,13,5,-12,-3,8,34
22,6,38,37,4,1,-12,-24
-53,-7,-13,-41,-15,-6,-16,-3
-31,28,-48,58,15,-7,-12,-5
23,59,20,-31,-29,-13,0,5
15,33,14,12,1,2,6,0
-15,-98,-1,-8,-8,2,-4,-23
59,60,75,5,15,10,19,28
127,-34,-118,-47,-39,-12,-8,3
-114,-15,-50,-5,-11,-3,-12,-14
40,45,-13,22,28,3,1,22
-18,81,23,-30,0,-3,-6,-10
46,-19,35,-78,-53,-5,5,-10
64,15,-34,89,85,19,-8,-4
-97,-74,-44,-17,-21,-20,-10,-9
127,114,-64,-3,46,11,-7,16
-128,-101,-39,37,39,6,6,1
41,47,-18,-54,-58,-12,-19,-34
39,24,-49,-47,16,13,10,20
-11,-44,47,53,20,-8,-10,-8
-18,50,24,1,24,-2,-16,-27
-44,-128,35,-21,10,22,49,49
4,43,-20,45,56,-1,-8,5
1,-27,-49,-63,-57,-14,-21,-39
-27,-29,-36,-47,-14,0,-6,12
-46,-48,95,54,-33,-9,6,10
32,33,78,-34,24,21,25,20
-71,-30,-45,57,-26,-13,-3,-6
-17,60,43,87,85,8,-3,-34
38,-28,32,94,-13,-6,-9,-20
77,2,-31,-69,-56,-18,-1,14
-98,-55,53,-43,5,6,-2,-16
61,-9,-21,-57,-22,-2,15,18
-111,75,-35,55,35,0,-33,-25
42,28,88,96,-17,-8,3,11
-72,4,22,-97,17,9,1,-3
95,103,38,106,-20,-2,-13,22
-63,-84,-57,-106,5,-9,0,-1
-40,-40,-101,-3,-3,3,0,-24
24,61,49,-26,-36,-11,-1,8
-41,19,72,89,-15,-9,-13,-10
102,45,-32,-75,-68,-12,8,9
-59,-71,-38,31,1,4,-13,15
85,11,-19,11,-6,2,2,-17
-41,-116,-32,-13,39,13,-6,-19
5,115,101,-82,-94,-23,-9,11
-12,-48,2,-24,26,1,-7,-2
-101,57,-21,93,-15,-5,-12,-44
97,-89,103,-25,49,19,27,64
5,4,-66,-62,38,13,11,-32
-89,-99,13,-44,-89,-14,-1,17
66,65,-38,-75,46,2,10,22
27,101,-14,62,-2,-4,7,7
8,-30,-11,46,57,8,-15,-23
-5,54,44,49,-20,-6,-28,-70
19,2,4,-47,-19,4,9,26
-69,-97,-32,31,-9,3,7,21
72,96,26,7,-10,-13,-5,13
-25,33,25,-19,52,16,8,-6
31,34,64,95,-5,-6,-15,-3
68,93,-106,-70,-29,-4,-7,-39
-81,-6,0,-47,-43,-17,-16,-10
39,-86,-31,1,34,7,13,42
-50,-43,-106,21,-16,-6,5,10
20,77,69,-28,-16,-6,-1,6
101,17,26,4,2,11,11,3
-65,-30,-78,-12,-57,-11,-1,-46
-79,-58,54,14,-51,-4,-10,-3
-27,-31,-31,-52,39,21,25,36
2,-19,-8,19,-25,-14,-24,-29
21,57,66,-8,-12,5,15,8
87,92,69,-92,-27,-7,3,8
-60,-58,-17,-82,-34,-11,0,-12
52,-5,-66,110,78,31,44,62
-99,-58,75,0,-16,-16,-20,-4
-11,7,120,99,-25,0,-3,-8
14,55,-73,-84,-15,2,-18,-22
-31,-46,-46,42,38,14,40,20
3,127,-3,-13,-14,-14,-21,2
73,-52,-79,49,62,19,11,39
-57,24,127,24,-22,-16,-17,-27
-45,-45,-78,-30,-34,-11,-15,-23
47,29,-14,36,37,19,23,15
-41,-74,30,-68,-25,-14,-13,-13
53,71,-48,81,97,22,5,14
-43,9,40,-94,-10,0,0,-12
61,44,79,20,-37,-22,-8,0
-86,-11,-68,-102,-9,-2,-3,-19
66,-96,-67,27,-33,-4,11,23
-67,24,122,110,56,4,-2,8
26,-34,-83,-17,-12,-1,2,3
-13,7,-29,-56,-22,-7,-6,-2
48,30,5,37,16,5,2,-23
-21,-31,-15,-15,-6,-1,-14,-9
83,6,-8,-67,-39,-15,2,27
-15,30,-12,99,100,16,4,2
-107,-24,-37,-41,-58,-20,-20,-58
105,30,51,-46,-11,-9,-6,48
21,-13,26,57,25,13,7,-12
-31,-50,2,-21,25,6,6,9
-71,27,93,88,0,-7,-1,17
-26,67,90,15,27,8,1,-10
-40,-89,-103,-104,-20,-5,-1,-6
109,63,10,18,-17,8,-2,-23
-48,-2,67,-78,-31,-14,-6,0
-32,-19,60,36,-38,-21,-16,9
20,56,-33,70,49,-2,-4,-1
18,51,-11,6,-8,3,6,-4
-24,4,-19,-65,-12,-8,-15,-31
92,20,-21,-81,-53,5,3,1
5,104,-6,15,-7,-6,-8,-15
-91,-128,-68,-12,34,11,22,33
42,60,-11,28,2,-3,0,-5
-12,-74,-47,-41,-15,6,6,6
-4,83,-19,-1,-53,-22,-4,16
50,45,1,-9,49,14,9,11
-74,-67,-30,-5,-4,-1,-11,-8
-59,23,12,80,64,9,-3,-36
74,-22,9,-22,-6,1,1,2
-50,-24,-40,-10,-15,2,5,27
21,-18,9,8,-5,-1,5,15
-49,42,-4,-74,-41,-14,-4,-39
53,33,12,61,5,14,9,40
-46,23,123,60,-25,-14,-18,-12
-5,-103,-39,-20,-8,6,3,-6
-29,-58,-50,33,-2,-10,0,9
-21,40,44,-4,3,-1,-7,-34
50,-58,-89,-41,-35,-2,3,1
68,74,-9,2,24,5,-2,8
-32,-5,2,2,-7,-6,-11,-10
-16,1,5,-37,-3,3,12,-6
-47,-41,-37,-34,-72,-15,-17,-42
-42,-2,4,104,93,13,16,11
58,7,50,4,10,4,9,60
-31,1,9,3,14,8,-7,-14
-28,-47,-83,-80,-19,-13,-7,-15
-6,-43,-70,-67,-48,-15,-4,-6
30,9,-21,11,-7,1,0,-7
-47,-48,27,66,37,8,0,-4
46,30,73,2,9,3,6,12
16,32,34,13,-3,-1,-1,7
11,-7,-59,19,8,-14,-8,-9
-19,-25,23,-54,-24,-2,-8,-8
16,13,-3,-4,8,11,12,9
-9,27,53,13,-3,0,-7,-5
-11,16,2,-12,-4,1,-5,-13
-18,-46,40,-3,2,-3,-4,-1
4,6,-36,17,8,-6,3,6
-4,4,29,9,-2,-2,4,5
13,0,-10,5,-8,-6,0,-9
-18,-20,-62,-34,3,-4,-7,-4
15,4,-36,1,4,15,6,12
-3,4,39,6,-6,-1,-3,-3
-1,-5,-42,-34,-10,1,-3,-4
-11,-28,-48,0,4,-7,-1,-5
-3,34,93,15,5,-8,-11,-6
9,22,30,41,0,1,-1,-2
-2,-22,-44,-49,2,3,0,-5
-10,-1,43,15,1,2,3,7
-2,-23,-86,-16,-10,-9,-6,-10
2,7,0,3,-2,1,0,2
-12,-30,-64,2,-2,0,-6,-8
13,20,96,81,13,9,5,5
3,-1,-98,-60,4,-2,-2,2
0,31,126,7,-9,-5,-5,-4
-14,-34,-15,-11,-7,-6,-8,-6
-11,-1,52,-25,-6,2,1,-4
15,19,75,17,-2,-2,-1,5
3,2,-52,-25,10,4,-2,-12
12,19,-4,73,14,8,3,15
-5,-8,-66,-86,-21,-14,4,26
-4,-11,-14,65,-1,-2,-6,-25
-12,-22,-106,-40,-5,-2,-1,-2
10,13,125,25,4,9,5,-17
