-2,6,-4,-3,-22,0,0,-1
1,-7,-4,-10,-3,-7,-3,3
-2,1,24,41,22,10,-3,-1
1,-2,-6,-18,-14,1,0,2
-2,-5,-5,5,10,-3,-6,-4
0,4,-7,-6,-11,-5,-2,1
3,13,20,10,22,-2,-1,2
-6,-7,-16,-11,-9,-4,-1,-2
-4,-8,-16,-10,7,4,0,-3
-2,-4,9,2,-13,1,-1,-2
3,-2,0,-9,-6,-2,-4,-2
0,-4,8,2,-4,1,1,-3
1,0,-5,-7,-4,-4,1,1
5,8,4,6,9,2,4,5
-1,-9,-13,-3,-12,-3,0,1
-4,-5,-7,-10,-5,-6,-5,-3
-3,1,4,4,-1,7,-1,-4
-4,6,12,4,-8,-2,-4,-2
-4,-11,-10,2,42,6,5,-1
1,12,18,6,-1,-1,0,-3
-2,-13,-19,-5,-9,-3,-1,2
2,4,3,4,8,1,-1,0
-2,-3,-5,-10,-25,-6,-5,-3
-1,0,-2,-5,0,-2,-3,0
3,4,9,-1,11,-1,-2,0
3,-2,-2,1,0,1,0,0
-4,1,-2,-7,-12,-4,-3,-4
-3,-3,-10,-4,-1,0,0,0
0,-3,-6,-2,-12,-4,-1,-2
2,0,-1,1,4,2,2,-1
-3,-6,-7,-3,7,-1,-1,-2
0,2,7,1,-4,-2,0,-1
0,2,-1,-7,3,-3,0,0
-3,-1,9,9,7,0,-1,-3
-7,5,-4,-8,-24,-3,-4,-7
-1,-6,-7,5,15,-3,-1,0
-1,4,11,-8,6,0,-1,2
-8,-8,-16,-3,-23,-5,-3,-4
5,-3,-5,2,25,5,2,1
0,2,-9,-1,-26,-6,-3,-3
2,7,7,10,5,-1,1,-2
-2,-8,-13,-10,4,-2,-4,-3
-4,-7,-5,-7,-19,-7,-6,-3
3,2,5,-3,-5,0,1,-1
-1,-1,4,7,9,4,1,0
-2,-4,8,5,3,3,-2,1
-3,-4,-11,-7,-12,0,0,1
-1,-4,-3,-2,2,3,-1,-1
-4,7,14,-4,-8,2,-1,-1
0,-2,-10,-1,3,-3,0,-2
2,-1,3,6,2,-2,-3,-1
2,6,7,2,0,1,-3,2
-4,-4,-5,-5,-7,-7,-3,-3
0,2,-4,7,44,5,2,1
-2,-4,-1,-19,-11,-6,-2,-2
1,1,-2,24,32,5,1,1
-1,-9,7,3,-7,-5,-4,-4
-5,-5,-20,-21,-16,-3,-2,-2
3,11,16,7,-3,-5,1,0
2,9,10,-10,-17,-4,-2,-1
3,-3,-9,7,29,6,-2,0
1,-6,3,2,-7,-2,1,1
-3,-3,-3,5,-3,6,-1,-1
-2,-13,-10,-9,-10,-2,0,2
-2,-2,-6,0,-7,-3,-1,0
3,15,16,9,4,1,0,1
-5,-14,-23,-11,-14,-3,-2,-3
0,-6,-8,-15,10,6,2,-1
-4,2,-2,-5,-15,-8,-1,0
0,6,21,11,21,1,1,1
-1,-1,-10,6,-9,-3,0,0
-3,-8,-9,1,-9,-12,-2,-4
-3,-4,0,-10,12,7,-1,0
4,1,-1,2,-25,-4,-3,0
2,-3,-4,-22,8,1,-2,-1
2,6,19,27,24,5,2,1
-1,5,-13,0,-8,-6,-3,-1
-5,-7,-2,-5,-10,-4,-2,-5
4,4,5,5,12,0,-1,-1
-3,1,-2,-12,-22,-7,-2,-4
-4,-16,-20,-7,2,2,-1,-3
-1,5,12,-3,9,3,0,-1
0,-2,3,2,-9,-2,0,0
1,-2,0,-6,-29,-5,-3,-1
-1,-1,0,21,31,1,0,0
-3,-10,-11,-12,-3,-3,-4,-3
4,4,-2,0,-8,-1,-3,2
-2,1,0,-5,8,0,-2,-2
2,8,19,0,-14,3,2,0
-4,4,-1,4,-5,0,2,0
-8,-9,2,3,6,7,2,-4
-1,10,-3,-15,-2,-2,-3,-3
1,3,6,-9,-15,-8,-2,-2
1,-2,2,9,4,-1,-3,-1
2,9,9,2,-3,-3,0,1
-1,-13,-15,-4,4,-5,-2,0
0,-7,-13,-5,-22,2,0,-1
-1,2,-2,-1,2,-4,-1,-2
-3,-6,-5,1,3,-2,-1,-2
0,1,2,2,2,0,-2,-1
0,2,9,-7,-12,-2,-3,-3
-1,-3,-6,-6,4,2,-2,-3
-1,0,2,14,-26,-12,-1,-1
-2,3,-4,0,13,9,4,-3
-5,-1,1,-3,-12,-4,-4,-3
0,-6,-4,-1,0,4,0,-2
2,-1,-3,-10,-13,-6,-2,-1
3,7,9,3,8,-1,1,3
-2,-8,-6,8,-9,-2,2,-1
1,5,2,-4,-8,-2,-3,2
-1,-1,-16,2,13,3,-2,1
0,12,33,2,-4,-2,-3,0
-3,-8,-22,-10,7,-2,0,-2
-4,0,8,5,0,-3,-2,-1
-3,1,10,4,9,1,-2,-3
-2,-9,-12,-19,-17,0,-1,0
1,5,15,15,16,-5,2,1
2,-6,-17,6,1,8,5,2
2,2,8,-3,-2,1,0,0
-3,0,2,6,3,0,-3,-1
-10,-11,-6,-18,-14,-6,-6,-10
3,-3,-6,-2,-16,-6,0,3
-5,-13,-20,-27,-1,-3,0,-2
-4,2,7,24,13,5,3,-2
7,10,-3,-4,1,2,-1,4
-14,-4,-14,-18,-8,-14,-10,-11
-1,-6,-6,-21,-12,7,0,-5
12,-4,9,44,15,5,9,14
-5,-1,-40,-23,-8,-3,-5,-8
-2,-9,4,-5,0,1,-3,2
-9,6,9,5,20,-8,-13,-13
-7,2,-11,-16,-44,-5,-5,-10
27,-4,14,28,2,4,10,30
-2,7,-12,-35,-3,-3,-4,-7
-22,-1,3,-1,-1,-1,-4,-15
6,-1,-15,-49,-6,-2,-4,-4
22,34,58,54,7,1,5,10
-1,-16,1,16,-3,-2,1,-1
-1,-13,0,1,-3,0,3,3
4,-3,-49,-36,7,8,8,5
-15,1,42,26,-2,-4,-9,-13
24,6,4,60,21,11,9,20
-19,-11,47,-15,-9,-8,-3,-11
5,-1,-38,-9,8,1,-1,10
-13,-11,-37,-7,4,4,2,-2
-25,-5,4,5,-7,-6,-14,-20
54,13,-60,-70,-15,-2,7,25
3,-42,73,97,5,2,-14,2
5,9,-71,-52,-4,-2,7,1
-14,6,46,23,3,-1,3,-7
-38,6,1,17,-8,-7,-18,-13
38,7,16,2,13,15,25,22
5,11,-6,16,2,2,0,-3
-16,-19,-8,-35,3,-2,-5,-10
13,-1,40,45,16,4,6,7
-56,14,-50,-28,-15,-1,-9,-28
17,-5,13,-11,-10,-3,-5,3
11,2,-3,-17,1,-4,2,6
-4,-32,-3,-2,-5,0,0,-1
-6,-1,-59,-46,-17,-16,-22,-14
-20,0,-2,35,36,11,11,-8
15,1,-17,-2,-37,-2,3,16
7,-22,-33,-12,-10,9,8,12
-39,-14,23,17,11,-9,-8,-22
-19,-23,-13,-14,1,-1,-9,-6
24,49,27,-11,-2,5,3,-2
-8,-40,-94,26,23,6,4,-4
22,28,7,-16,20,10,7,4
-38,-3,-24,-22,-25,-6,-2,-13
-35,-43,-32,-81,-19,-5,-5,-14
26,34,36,98,-34,-2,19,27
21,20,40,-18,29,3,5,14
-11,-35,-60,48,2,-6,-10,-6
-35,-30,4,27,21,13,-7,-22
53,67,-6,-9,-20,0,2,5
-33,-46,3,-30,-39,-24,-17,-5
24,-27,-52,-42,5,10,3,14
5,39,53,-43,-32,-8,12,-2
-34,-40,-34,24,26,2,-17,-14
24,81,94,8,22,-5,3,-1
-4,-33,-13,-40,-35,-13,-15,-10
-8,26,-79,19,28,7,4,6
-3,17,23,-55,2,2,9,1
21,-17,53,86,-2,-5,0,3
-17,-36,-45,-76,-20,-10,3,-1
5,15,35,72,-7,-9,-3,-4
20,4,-9,-81,-50,-16,-14,-2
-10,-29,-87,-21,3,-8,6,3
-13,-18,39,16,39,4,-11,-7
-12,-55,-44,52,-26,6,-5,-7
-9,-29,-38,-24,5,0,11,-1
20,-1,15,92,27,15,11,9
-2,26,37,45,-24,-3,4,-2
-33,79,125,-53,-10,-20,-18,-20
72,89,-49,39,29,4,9,27
-49,-106,-7,-20,-37,-8,-26,-29
-8,-7,-14,-13,3,1,-7,2
8,27,37,57,36,5,-3,2
-40,-95,2,-72,-43,7,-1,-8
-1,41,7,26,10,16,15,11
41,29,50,11,19,-12,2,1
-7,8,53,-31,2,2,-2,1
15,64,7,43,-2,-15,-6,4
5,-53,-7,-2,10,10,11,5
-2,34,74,7,7,10,14,5
6,-102,-128,-84,-57,-6,11,15
-10,98,127,73,72,12,-2,-5
42,84,-73,41,-7,-16,-17,-9
-50,-78,-20,-28,-14,12,-8,-17
53,38,92,-34,-67,-21,-8,8
-51,-55,-60,-14,49,3,-10,-21
-17,-10,2,-2,6,0,3,3
22,96,-5,-15,-2,-10,-12,-13
0,-14,-3,16,12,12,10,10
0,5,67,19,-3,11,18,9
9,20,89,-56,-19,-30,-9,1
22,13,-109,22,-9,-18,-28,-4
-11,-47,-117,-40,-1,-2,2,19
1,21,43,12,-29,-15,-23,-25
-41,-91,-110,-52,-21,-13,-6,-7
23,102,56,50,-76,-7,5,14
10,-9,-17,36,89,26,19,17
3,-31,-1,-6,-1,-8,-16,2
-16,9,12,-92,-26,1,4,-8
-35,-33,13,49,7,3,5,-8
67,125,111,49,25,4,-5,1
-73,-115,-103,-4,24,-1,-5,-11
-1,-54,3,-45,-45,-6,4,-11
8,15,11,-90,-13,4,19,15
0,-8,-13,106,19,1,16,3
-2,59,-53,-7,28,9,-2,1
-6,28,-98,-62,3,8,-5,-9
-23,-32,-53,-16,13,13,12,12
21,-33,-73,-7,9,4,5,-8
33,-43,-51,9,-8,-6,16,7
5,84,61,62,-33,4,-7,22
-41,-106,-65,-47,10,-15,-11,-19
-104,-61,-118,-68,-22,3,-5,-30
45,-6,-22,20,-15,-10,-21,4
7,-52,-86,41,12,1,4,10
8,71,69,69,96,37,17,7
-24,-23,-73,-10,-18,-12,-12,-14
1,7,67,-44,-22,3,0,-5
-10,-12,-57,76,40,-6,9,12
9,-51,-49,-100,-73,-9,-9,-6
2,8,38,15,18,2,-7,3
-63,-24,-60,18,3,27,81,10
35,1,67,-21,-30,-27,-86,-33
50,10,7,78,18,4,8,20
-1,17,21,-12,1,-9,-32,-16
-7,20,-17,-29,-33,-8,18,0
-44,-26,-1,41,22,24,28,7
-13,-48,-14,-57,4,-12,5,15
64,-17,-8,71,8,17,12,23
-4,61,81,-44,-6,-11,-14,-5
-3,-107,-108,-27,9,6,6,-26
-25,49,85,-53,-32,-8,-7,-28
5,-69,-25,6,-4,-6,48,7
83,84,82,29,21,-10,-67,40
-92,25,-22,-117,-21,35,21,-20
79,53,21,47,15,17,18,71
-93,-77,-65,16,32,-5,-18,-50
29,-83,-128,-84,-24,-17,28,11
72,92,29,15,-68,-22,10,3
-2,-8,-17,-17,76,26,-19,12
-23,-72,-74,40,15,0,1,-4
-26,-33,-107,-49,-12,-9,-34,-29
-30,91,127,54,40,-9,-17,-15
-7,-25,2,-20,-70,-32,15,-16
26,93,86,-16,-16,-19,-29,6
-46,-2,14,49,6,8,-21,-31
22,-54,-13,-84,-44,-29,10,9
20,9,-28,42,23,4,-9,-12
1,2,73,-65,-25,-8,-9,-7
-89,-90,-45,95,2,-20,-26,-53
-5,20,62,-35,-5,30,32,32
-5,18,-14,33,13,0,-24,-1
84,-1,69,-72,-35,4,35,57
22,48,82,88,38,9,16,9
10,-49,-56,14,27,-2,-20,-24
-63,25,-105,-10,-17,-13,-34,-71
14,-29,1,-46,-29,5,42,73
-6,-37,29,-20,-21,-3,-5,-13
10,-27,-42,90,26,-4,3,11
-50,-94,-83,-64,-30,-11,-33,-34
11,127,65,34,-4,-12,-30,-42
74,76,47,-44,-22,9,63,63
8,-44,-128,60,20,9,-20,4
10,-8,33,68,-4,-8,-4,-4
-38,5,52,-11,1,-7,19,-1
21,27,-30,5,2,-11,-37,2
1,-3,-64,-82,23,8,17,19
37,110,127,111,22,13,2,-23
-43,-90,-24,-74,1,-16,-25,-36
28,90,98,-12,-15,5,22,55
-33,-23,-54,10,12,21,9,-32
12,-65,-91,-13,-17,-16,0,52
2,-18,-65,50,29,4,-27,-33
16,47,-61,83,13,12,13,10
-17,-53,112,-44,-7,-7,-1,-20
17,36,11,-86,-42,1,5,27
18,81,-6,71,-15,1,-2,1
-28,-96,-65,25,-35,1,-15,-31
18,1,6,-41,-56,-19,-3,33
-17,116,114,30,3,-9,-13,-50
-34,-11,-58,-29,-37,-5,-6,-25
-17,-67,5,-15,49,-10,-25,31
17,123,127,-22,-13,13,-2,16
30,-102,-114,-54,-19,-19,4,25
1,-18,-63,-31,2,-8,3,-11
-39,-20,-2,-39,9,-2,-9,-40
-38,15,47,4,4,-2,-9,-19
8,-42,-11,23,25,16,25,23
7,37,-33,36,9,10,-3,7
-37,-54,-56,-47,1,4,4,-20
48,56,-5,0,-22,-19,-4,11
-4,4,78,59,42,24,15,-2
-8,2,-47,-19,4,-2,-6,1
-5,40,64,-6,-25,-1,-12,-11
1,-17,-39,-39,-7,-8,-2,3
-34,67,75,106,19,18,25,-17
35,-24,-58,-42,0,-6,-7,2
29,21,-17,-25,-11,-6,2,34
10,-12,-58,13,6,-4,4,-8
-22,-47,-5,-39,-6,-22,3,-4
-26,-14,15,-5,-12,-14,-39,10
5,8,-9,-14,0,47,26,-21
1,10,13,53,33,7,3,-4
-8,-48,-49,-87,-33,-16,-11,-3
4,16,34,56,8,-8,1,4
-5,-28,-11,3,-12,-9,-14,-18
1,-19,-23,6,2,3,0,4
1,-12,-35,-26,-4,9,7,6
14,8,22,12,5,4,5,11
-5,-7,-8,-37,-7,-12,1,-1
-11,-2,18,24,9,-1,-1,-7
-3,-13,-2,2,-8,-17,-20,-7
3,0,-20,2,7,17,22,8
-9,-18,-1,14,-2,-8,-11,-12
-3,-3,-61,-27,-9,-2,-3,-3
12,5,8,53,2,-8,4,8
1,-7,-38,6,5,6,-1,13
-4,2,-3,-54,-18,-8,0,-19
-3,-2,-4,-4,-1,0,-9,-4
-2,-3,-22,-8,3,-4,-8,0
-4,12,14,0,-3,-3,5,-4
-5,11,-17,-9,0,-7,0,2
0,20,12,25,2,-7,-6,-4
11,-7,-11,-31,3,-1,-3,-5
7,-15,12,19,-2,4,2,1
3,26,8,18,4,-1,-3,-2
-10,-21,4,-12,-7,-3,-4,0
-19,-9,-36,-20,1,8,3,-1
-4,-10,12,-53,-3,1,-1,-2
0,-28,20,26,7,3,2,2
0,-21,-12,-20,8,0,-2,-3
9,-16,-20,30,-8,-3,3,-1
-5,-26,-6,-38,-2,-3,-7,-4
0,11,18,32,3,-1,1,-1
-3,1,-19,-4,-7,2,0,3
-10,-14,5,-86,-12,-2,-2,-5
6,21,18,19,4,4,-1,5
-7,-18,-2,0,-3,-2,-2,5
4,2,-13,44,14,6,6,0
2,8,28,39,16,5,0,-5
-3,4,45,13,-1,2,1,-1
-5,-4,-41,-27,-5,-14,-10,-4
6,5,1,27,-5,-1,4,8
-8,-8,-32,-67,-18,4,-2,-4
3,15,9,1,12,-1,-5,-6
4,-2,-26,12,-1,15,10,8
3,4,47,24,2,-5,-2,-1
1,-6,-62,-22,-4,-9,-3,-2
3,9,11,-37,-13,2,3,0
0,0,8,18,3,-5,-3,-5
-5,-6,-41,-58,-11,-7,-4,-5
-1,9,33,20,12,1,1,-1
0,-4,-6,61,6,1,4,4
-2,14,83,59,18,-1,-3,-4
-1,1,-8,-75,-17,-2,-1,-2
4,-13,-16,61,8,3,5,21
-6,-2,-14,44,-5,-1,-2,-22
7,1,-48,-38,-8,-2,-1,-1
-7,-5,80,107,7,-5,-6,-4
3,2,38,12,2,1,-3,0
-4,-3,2,-40,-5,0,0,7
4,5,3,-54,-12,-6,-2,-1
-10,-20,-65,-26,-11,-8,-5,-7
6,-10,16,-22,-6,-5,-1,-4
0,5,42,48,4,3,2,3
-8,-5,-28,-12,-11,-2,-1,-10
9,8,6,4,1,-1,-2,11
-2,8,36,29,6,-11,-8,-5
-2,-13,-46,-53,2,13,2,1
2,3,-5,-51,-1,3,6,3
-10,-4,-21,-12,15,-4,-1,-5
0,4,22,48,-22,-5,5,4
0,9,68,72,10,2,-4,-8
-3,-14,0,-3,-9,-5,-3,3
3,9,-7,7,3,4,-2,-5
-3,-5,-4,-9,2,-5,-8,2
-2,-4,-25,-30,-4,-7,-4,-1
-1,-1,19,11,-3,0,-1,-4
-1,-1,-22,-12,-9,-11,5,-4
