1,-1,-2,-3,2,-1,1,0
-1,1,0,-2,-4,-2,-2,-1
-3,-1,-5,-5,-2,-2,-1,0
-1,-3,-2,-19,-18,-3,0,2
-3,-1,-10,1,-2,-1,-3,0
1,-5,2,0,1,-4,-2,0
0,0,-4,-9,2,-1,-2,0
-1,1,-1,9,-7,-3,-3,-2
-2,-3,0,-4,-2,-1,0,-2
-3,1,10,14,-4,1,-1,-3
-3,-3,-29,-34,-1,1,0,-2
-2,-1,13,9,2,-1,1,0
-1,-1,-19,-25,-8,-3,-2,-1
-1,0,7,7,-12,-5,-1,-1
0,1,16,24,35,9,3,-1
0,-3,-8,-6,-12,-2,0,-3
2,3,-8,-3,6,2,2,-1
1,-2,5,15,-3,-3,0,-2
-1,0,2,4,-2,-2,-2,-1
-3,-2,-5,-9,-7,-4,-2,-2
1,0,4,-1,6,1,-1,0
0,-3,-4,-8,0,-1,-3,-1
-1,-1,22,16,-1,-1,-1,-2
1,-2,-5,8,-6,-4,-3,0
-1,-3,-16,-18,-13,-5,-1,-1
0,0,-2,-3,9,1,2,1
-2,1,9,1,-8,-3,-3,-2
-1,-1,-3,-3,1,2,0,-1
-1,-2,4,2,0,0,-1,-2
-2,-2,1,-3,-3,1,-4,0
0,2,0,-13,-2,-1,1,1
-4,-4,-12,-5,-3,-2,-3,-3
-4,0,-2,14,4,2,0,-1
-3,-2,17,3,-9,-1,-3,-2
1,-7,-42,-5,1,0,0,0
1,3,4,8,17,-1,-3,0
0,-4,-10,-29,-11,0,-2,0
0,-2,-2,3,0,-3,-2,-2
-1,0,9,-6,-7,0,1,-1
1,2,-7,-9,-2,-1,-1,-2
-3,-1,-5,0,-2,-4,-1,-2
-1,1,-14,-19,-5,-2,2,0
-2,0,32,49,-1,-2,-2,-2
-3,-3,-10,-30,-4,-2,1,0
-1,-2,4,-6,-4,-2,-1,-1
-1,-2,-5,2,4,-1,-4,-2
-4,-2,1,15,3,2,-2,1
0,-2,-25,-14,-8,-3,-4,1
1,0,2,6,-9,-4,-4,0
1,3,13,46,25,7,4,-1
1,-2,-11,-25,-7,-2,-1,-1
-3,-2,10,15,4,0,-1,-4
0,-1,-3,-8,-5,1,-3,1
-1,-2,-13,-11,9,-2,-3,-1
0,-2,1,-5,-14,0,2,2
-3,2,24,41,2,-1,-1,0
-1,1,-23,-18,-7,-3,-1,-4
-1,0,0,-15,-4,-2,-3,-3
-3,-1,0,-7,1,-2,-2,0
-1,-2,0,1,2,0,-2,0
-3,-2,12,10,3,1,1,-1
-1,-3,-3,-10,-5,-1,1,-1
-1,-1,-22,-4,0,-2,0,-1
1,-1,0,1,-1,1,-1,0
-1,-1,7,8,3,0,-2,0
-2,-2,-12,-5,7,0,-2,-1
-1,0,11,3,-4,-7,-3,-4
0,1,6,-5,-2,-1,0,0
0,0,-4,9,15,1,1,-2
-4,-1,10,1,-17,-5,-1,1
-1,-3,-4,3,9,5,1,0
-1,-1,2,-8,12,1,0,0
-2,-2,2,4,-2,0,0,-2
1,3,4,-4,-2,0,-2,0
-1,-1,-5,-15,0,0,-3,-3
-3,-1,-1,-6,-8,-2,1,0
-2,-3,10,9,-3,-1,-1,0
-2,-2,-5,-6,1,-1,0,0
-3,-3,2,-5,-7,-2,-2,-3
0,-1,-1,-1,-1,-1,-1,-1
0,-1,-4,-10,-2,-1,2,1
0,0,6,12,-1,-2,-2,0
-1,-7,-19,-9,2,-2,0,-2
-1,3,0,-1,-8,-3,-1,-3
-1,-1,-2,-4,-2,-5,-5,-1
1,2,4,6,13,9,0,-1
-1,2,25,-2,-7,-3,1,1
-1,-3,-12,8,2,0,-2,0
-3,-2,1,-11,-15,-5,-3,-3
-4,-6,-22,-7,-14,-7,-1,-1
-1,2,-1,22,9,1,0,-1
2,1,4,-24,-1,3,3,-1
0,0,3,6,5,1,0,0
-8,-6,-12,-20,-15,-6,-6,-6
1,-1,0,2,5,3,1,1
1,3,5,2,-7,-4,-3,2
-7,-28,-49,2,1,-2,-4,-4
7,19,30,-6,10,3,3,4
-3,-4,11,1,-7,-1,0,-1
-1,4,-7,8,3,-2,0,-2
-4,-11,-14,-4,2,2,-2,-1
-4,1,6,-3,-3,0,-3,-3
-3,-4,0,-3,1,-1,-2,-4
3,-3,-2,-7,-1,-1,1,2
2,12,22,11,-5,-1,0,-1
-1,-2,-11,2,-5,-5,-4,-3
-2,7,-3,-2,-1,0,-1,0
-5,-6,0,3,0,1,-3,-4
3,3,7,-3,-6,-5,-1,-1
-3,-3,-2,-11,-3,-4,1,-1
0,-5,-13,-7,-5,-3,1,-3
-1,-4,-7,-3,-1,-1,-3,-2
8,10,18,4,-1,3,4,6
-8,-6,-15,-1,11,0,0,-4
-6,-4,8,-3,-2,-3,-6,-6
-7,-2,-13,-11,-3,0,-1,-5
12,1,2,-2,-9,-2,2,4
18,8,4,50,18,6,8,15
-2,3,-25,-38,3,1,-1,0
-12,-13,1,6,-1,0,-3,-4
-12,0,9,-5,-16,-6,-7,-10
3,-1,7,-7,11,4,1,3
-2,-6,-36,-1,-9,-3,-3,-3
3,6,8,0,-1,-2,1,1
-2,3,1,-11,-5,0,2,-1
1,-2,1,-6,-17,-4,-2,0
-16,0,22,16,7,-5,-6,-7
12,5,0,-1,0,3,2,1
11,-3,-9,1,8,-1,2,10
-11,-7,-5,-18,-7,-5,-7,-9
14,13,19,12,-7,7,10,11
3,-6,-18,-17,-8,-7,-5,-1
-6,9,18,7,13,-1,-1,-4
-18,-22,-20,7,2,0,-8,-14
-9,-7,-11,-27,-23,-4,-1,-3
10,14,19,-8,15,9,9,14
8,-8,-18,33,16,-1,-2,-4
-18,12,3,-2,-6,-5,-2,-11
-6,-12,0,2,-2,-9,-9,-9
-5,-11,-9,-19,-2,4,7,3
-10,-18,3,-10,-17,-5,-5,2
13,7,7,6,6,8,8,2
-4,4,-7,7,-1,-2,-6,-3
-16,-29,6,-2,-3,0,2,0
24,54,1,-17,8,8,4,-2
7,-70,-12,4,-11,-11,-7,1
-2,16,1,-7,-2,-1,-1,-3
25,8,1,10,-9,-2,0,12
-5,5,1,9,12,-1,-2,-6
-13,3,-13,-23,1,-6,-6,-10
-14,14,20,37,-6,0,-2,-8
-61,-60,7,14,12,0,-6,-25
70,43,-17,-13,11,8,17,41
10,1,3,-10,-8,2,3,6
-10,-8,-18,-34,-8,-16,-13,-4
5,18,22,49,29,20,7,-5
-31,-17,-8,-13,-34,-18,-10,-12
-22,0,6,10,11,-4,-10,-20
43,1,-3,-37,-14,4,17,26
20,53,20,38,55,5,1,16
-52,-66,-8,-2,-15,-8,-10,-15
22,13,-2,12,74,14,8,8
-27,59,43,14,-12,-3,-17,-16
47,-84,-58,-12,-12,3,14,21
-15,3,13,-10,-28,-15,-11,-18
-11,-7,5,-39,-33,-11,-3,4
10,15,11,76,51,21,10,-6
-23,15,-9,-45,-23,-5,1,4
11,1,-27,-77,-67,-36,-24,-9
-4,-33,7,78,63,28,12,7
52,56,3,-11,3,14,44,16
-7,44,-9,-22,-30,-34,-37,-19
-23,-67,-4,2,-9,11,-1,15
41,94,7,-22,-54,-10,-5,-1
-74,-128,-34,12,33,-3,-19,-24
27,52,1,9,-3,9,9,12
-50,8,8,21,24,9,14,-27
-14,-20,-6,-72,-79,-28,-27,-32
82,24,8,51,67,21,16,32
-37,-42,17,-28,-64,-16,-3,14
34,0,-5,24,55,19,11,-10
-25,-36,-23,-11,-27,-10,-4,22
-33,4,-38,-44,-25,-20,-32,-43
-38,-86,-6,58,59,5,-8,-18
12,41,-5,-30,-37,0,38,27
1,49,4,31,62,-4,-16,-31
-12,-71,20,-72,-100,-26,23,44
55,43,-38,65,89,35,-26,-4
-28,-18,33,-10,-21,-17,-34,-35
0,-23,-36,-22,-16,6,29,-3
-36,-4,16,-11,-39,-13,-2,7
61,-3,34,14,-4,-5,49,30
-9,60,48,50,26,17,-21,-26
13,-64,-10,-65,-84,-16,-1,5
-10,-7,-3,85,92,31,2,12
-34,36,-18,-56,-49,-11,-4,-36
12,-15,-16,-4,12,3,-10,4
29,-1,20,-11,-47,-23,-15,23
-77,-3,12,65,9,7,-12,-41
-21,-25,-29,-54,-35,0,-26,-31
46,-41,-3,41,56,33,47,52
-98,26,-28,-92,-63,-30,18,-16
95,-25,11,56,72,16,-55,-1
17,39,41,9,-27,-3,18,16
-47,25,27,-15,22,-10,-16,-30
-4,-21,-12,78,57,37,34,19
63,-52,-29,-78,-43,-15,2,25
-20,36,71,43,56,-5,-1,-6
31,127,64,8,-15,16,16,24
-23,-111,-75,-65,-7,-10,-25,-32
-83,68,28,-44,-35,-7,20,-18
89,-77,9,-13,-39,-19,1,32
-57,-72,-47,39,39,20,2,-13
46,105,69,30,9,14,-6,30
-57,-1,0,5,-90,-36,-13,-34
-97,23,-60,-83,69,25,-42,-51
40,-113,-10,35,-89,-32,2,13
22,16,1,66,37,6,-34,13
-9,36,-75,-121,-62,-17,38,2
-23,18,38,70,25,-5,-14,-7
-31,-10,-7,-16,10,0,-29,-9
40,-15,63,2,-23,3,16,14
30,7,-4,11,24,9,-2,-5
-1,61,-57,-13,-13,-26,-8,8
28,56,-21,-42,-33,-7,40,28
-17,58,8,-53,-24,-15,-54,-21
-22,-27,-13,83,-33,-14,-31,-51
105,50,47,9,48,38,73,105
-58,-24,-56,-99,-60,-35,-16,-17
15,58,38,127,92,52,-1,-33
18,0,92,9,-4,4,14,27
-67,-71,-69,-55,-46,-24,-17,-44
48,51,59,21,-2,8,13,-1
-37,-34,52,-75,-71,-33,25,9
5,51,36,89,73,79,2,-23
67,-69,38,-22,31,-2,33,45
-1,55,40,19,21,17,-27,-6
-38,-41,43,9,2,-41,-22,-23
34,26,0,-86,5,-21,6,16
-50,14,7,-24,-53,12,14,-10
18,37,-45,87,20,3,-18,-18
34,55,-12,28,19,20,26,50
-37,-84,-114,-86,-42,-29,-16,-28
2,107,91,30,-34,-30,-15,-27
-50,-45,-53,-32,-63,-10,-28,-6
-27,58,-24,-28,-34,-19,-4,-13
70,-68,-65,2,74,-7,-11,15
-49,-39,48,-14,-112,-17,-42,-19
27,36,60,49,120,39,37,-15
-42,-51,-16,-31,-30,-11,13,25
18,116,-18,-43,-16,-19,-40,-10
-61,-9,29,-28,-119,-31,53,-99
24,-126,-22,-53,28,44,-3,84
63,75,25,-3,-40,11,33,29
20,-5,-10,-20,-11,-4,14,18
-77,11,4,-85,-70,-7,0,-67
21,-21,52,76,68,-7,-19,28
34,9,-6,95,127,57,21,-1
-19,23,16,65,-71,-56,-37,4
40,4,43,11,81,49,11,27
-35,-23,-103,-46,-50,-41,-15,-31
-39,-60,29,-49,2,-23,-33,-28
43,77,20,-102,-31,-31,-1,-17
-14,-78,18,92,103,64,30,41
24,60,77,53,58,31,2,-13
-68,-20,-51,-62,-30,-14,-93,-100
-34,33,57,57,-47,-6,60,83
32,-15,-108,-13,-11,-9,-6,13
-9,60,37,6,31,-12,8,15
19,-80,-94,-31,27,17,32,-13
61,-9,127,107,-33,32,-21,-49
-20,-58,-79,-23,-69,-8,-32,64
-47,57,-35,-47,-63,-29,21,-37
101,44,25,-31,34,38,25,70
-51,-34,-73,-62,-27,-14,60,-11
58,67,19,105,99,26,-55,8
-46,-56,-9,-48,-30,-9,-2,-4
1,27,-10,-63,-48,-25,-1,-15
-89,40,-18,-10,-59,-30,-52,-69
35,-4,68,99,84,70,-14,-83
49,-26,34,26,70,38,97,80
11,43,-22,5,23,5,27,-12
-80,-20,-14,30,6,39,2,-24
-26,26,-69,-84,-41,-65,-42,-45
18,37,19,-59,-104,-21,-26,-3
85,23,-43,-84,-87,-37,-36,17
-27,-121,80,81,127,124,108,73
4,-8,-75,-127,-112,-2,88,-38
55,62,37,30,54,-36,-87,76
-56,-51,42,65,-90,-32,7,-5
38,-2,18,-69,-33,-5,-22,2
-24,-28,-30,28,43,-21,-38,4
-40,-64,-29,-31,-39,9,-11,-64
-10,-5,-6,50,19,-10,-4,-15
-7,16,-43,-16,-18,-56,-69,-25
24,5,35,67,-7,30,38,53
-15,-97,-46,-108,-54,-9,35,-28
-19,86,46,108,42,8,-17,5
0,-13,-108,-45,-9,-4,-17,-19
12,27,50,-60,-48,-35,12,-1
-41,45,-18,-13,-91,-5,-43,-75
7,-80,53,51,60,40,53,51
54,14,7,-26,-21,-2,14,79
8,44,-9,-10,-9,-33,-31,-17
23,52,17,-3,5,17,9,-1
-110,-104,-29,-67,-34,18,49,-100
12,0,17,25,60,9,-12,59
63,32,-53,-67,-31,-31,-2,77
-7,11,44,60,45,13,15,-19
-10,-27,-43,-33,-24,-26,-33,-7
-4,49,10,9,10,5,1,-40
-51,-51,-50,-68,-35,-12,-20,-22
16,9,-2,-88,-92,-46,-22,1
12,51,12,64,85,46,23,8
-16,-51,37,-28,10,6,3,-4
2,12,-71,5,1,-16,-15,-1
-8,-27,21,28,-30,-35,-2,-27
-6,13,3,-25,-20,-18,-43,-2
-4,23,-11,6,-5,60,33,-11
45,-51,4,-4,-4,-3,22,26
13,31,54,45,34,15,24,22
-9,-15,-59,-12,-17,-16,-6,3
11,12,58,-11,-1,-45,-36,-10
-42,16,43,14,-10,-23,-35,-41
-11,-25,-15,-4,20,39,7,-10
26,20,14,-8,-12,34,23,30
14,7,49,16,13,3,7,-6
-31,-12,-1,-19,-3,-11,-12,-16
-1,-26,-51,3,11,-35,-14,-4
4,16,22,-18,-13,17,2,6
1,-18,-15,-2,-24,-17,0,-1
-7,31,70,45,28,16,13,1
-1,-1,-4,-13,-5,-21,-26,-5
-5,0,-30,20,-17,-23,-22,-10
8,-11,-22,-4,13,46,31,10
-4,7,29,10,-6,-26,-25,1
-4,-11,-43,0,21,42,23,-3
5,11,-4,-15,10,18,8,6
-1,-14,-128,-54,-9,-60,-34,-7
-10,10,-31,47,14,42,4,4
-7,4,-14,-16,-4,-7,-1,-9
2,-7,16,50,7,-17,-16,-1
-3,-14,106,7,12,18,9,-2
-4,4,46,-20,-12,-12,-5,-7
-4,-31,-11,-62,-32,-27,-18,-8
3,2,66,-25,-2,-5,0,4
3,6,20,13,-6,-12,-3,-8
-7,-21,-22,70,31,20,4,-5
3,5,15,-54,-7,10,14,4
2,5,-65,48,13,-13,-7,-2
-7,-24,-22,-102,-49,-41,-17,-12
-2,-16,12,68,26,23,7,5
0,22,42,-29,-27,-4,-10,1
-5,-15,2,22,11,23,24,13
6,13,46,121,33,10,-3,-11
-5,-9,-80,-128,-30,-5,3,-2
-7,-6,12,93,1,-26,-31,-5
-4,1,-16,-2,-4,-13,-6,-4
6,13,44,-18,10,1,-4,11
-3,-6,-24,-27,-6,3,7,4
6,8,-38,-12,10,6,4,-3
-2,-5,-36,-40,-20,-8,10,2
0,-5,-51,10,9,18,9,4
3,17,29,-12,5,-16,-21,-1
-9,-13,16,65,13,5,-1,-3
8,24,16,47,11,-8,-4,2
-4,-11,-22,-39,-2,9,17,2
1,-2,17,21,-11,-7,2,-1
-9,-18,-21,60,7,11,15,21
8,-10,-87,-108,-20,-13,-7,-28
-2,10,89,72,-2,-16,-17,-9
-1,4,-23,-65,-5,6,12,3
4,5,-7,20,30,16,10,-14
-3,-9,114,100,11,6,-1,25
6,8,-42,-70,-3,4,4,10
-11,-5,-12,70,3,2,-26,-34
5,0,16,-51,7,19,31,40
12,5,41,57,-3,3,4,-3
0,2,-67,2,-3,-7,-7,-2
0,7,55,19,6,-6,5,3
-8,-9,-46,-37,-23,-2,-9,-21
-7,5,9,-39,0,-8,-13,-4
-1,-10,21,5,1,-6,0,5
0,12,40,75,11,-6,-4,0
3,12,4,-49,-7,-12,-7,-5
1,-10,-1,-48,-9,18,14,6
-6,11,-5,42,3,-1,-6,-5
-7,-16,-15,-64,-7,3,7,0
3,-3,-42,-11,-2,-5,-3,-3
-3,-2,51,38,6,-6,-6,-5
2,-6,-28,-29,-9,1,-1,-5
3,-5,1,3,1,16,7,9
-5,-8,15,88,9,-9,-4,-6
-5,8,-45,-116,-14,-13,-5,-5
-2,1,28,-26,-5,-1,-2,1
3,4,2,29,0,-1,7,8
-1,-2,-34,-22,-3,0,3,-7
-8,-4,0,7,-9,-13,-18,-6
6,4,-5,25,16,11,8,6
-4,-14,-34,-41,-3,-7,0,-3
1,1,28,2,0,2,2,-3
-2,4,23,90,7,-2,1,-1
-3,-5,-54,-86,-15,-1,-4,2
2,8,33,19,-3,0,-1,1
