-1,1,-11,-7,-8,-6,-2,0
-3,2,17,34,0,2,2,0
-4,-5,-37,-60,-7,1,-1,-3
-3,-1,1,-3,1,-2,-2,-3
-1,0,-8,-13,-6,0,1,-1
2,1,7,15,4,1,0,-1
0,-3,22,23,1,-1,-1,-2
1,0,-4,-6,-3,-2,0,-1
0,0,-16,-6,-1,-5,-2,0
-1,-2,-5,-23,-12,-6,0,0
0,4,24,33,10,-1,-1,1
2,-1,-17,0,5,2,-2,2
0,1,26,-11,1,1,-5,0
-5,-5,-6,-35,-29,-13,-7,-3
5,7,2,57,54,24,10,4
-2,1,-5,-5,-5,-3,-1,-5
0,0,6,0,-5,-3,-2,-2
0,-2,-8,-12,8,-1,-10,-3
1,-4,2,-2,-20,-6,1,3
0,0,0,-13,-2,1,0,0
-3,-5,-12,-17,5,2,0,-1
-4,-1,-9,-7,-7,0,6,-2
-2,-4,-2,-8,-12,-5,-5,-3
-1,1,18,36,5,0,-3,-1
-3,-2,-22,-39,-15,-3,0,-2
2,2,-26,-7,8,1,-1,2
-3,0,0,-6,-7,-3,-3,-4
-2,-4,1,2,4,1,2,-1
4,6,12,13,8,3,0,0
-4,-10,-12,-3,3,0,0,-2
-3,-4,-1,-11,-6,-6,-8,-3
-1,-3,-8,-15,-14,-4,1,1
1,3,5,13,6,0,-2,1
-2,-6,9,9,2,1,1,-2
2,3,6,-7,-9,-5,-3,1
-1,-1,-8,-11,-3,-2,-4,-1
-3,-1,-21,-6,-4,-3,-1,0
0,3,21,17,8,2,3,-1
-3,-2,-9,-16,-6,-2,0,-2
1,1,2,1,0,-6,-3,-2
-1,-2,1,13,2,10,4,-1
1,-2,4,7,0,-1,1,-1
0,-3,-7,-1,0,-2,-2,0
1,-1,-6,-7,4,0,-3,-2
-2,-3,-3,-4,-11,-9,0,-2
-4,2,13,15,12,1,0,0
-4,-2,0,-11,0,1,-1,-3
-4,-5,9,-6,-28,-7,-3,-1
3,1,21,75,8,2,-2,-2
-2,-4,-41,-66,-10,2,-3,1
0,0,4,9,1,-1,-3,0
-2,-1,-4,-9,-6,-2,-1,-1
-1,4,9,0,1,-1,0,-1
2,-2,6,14,3,-4,1,4
-3,-3,0,3,-3,-4,3,-2
1,-2,-7,1,6,1,-2,0
-3,0,-1,-15,-4,-2,-3,-3
1,3,9,20,9,4,3,0
-1,-2,-10,-15,-5,-2,-2,0
1,2,3,10,8,3,0,-1
-3,-6,-17,-11,-3,-3,-4,-2
0,5,32,8,-6,0,-3,0
-2,-3,3,14,1,-2,-1,-2
-3,0,-5,1,6,0,1,0
0,1,-9,-17,-19,-4,-3,0
-5,-1,-2,2,3,-4,-5,-3
-1,0,-1,-1,-18,2,-3,-4
2,-3,-2,7,2,-4,0,0
-1,-2,-2,-1,26,5,2,0
-5,0,0,1,-14,-4,1,-6
0,0,-4,-1,12,1,0,0
7,12,14,-5,1,0,1,4
-1,-12,-11,-7,-4,-4,-2,-2
0,-4,-10,0,-1,-2,-4,-2
-6,1,7,-2,0,-2,-4,-4
1,-8,-8,-3,-4,-1,-4,-3
-1,14,18,-11,-9,-7,-1,-2
-4,-14,-10,6,-1,5,1,-1
6,10,-5,-3,1,-2,1,1
-2,1,1,12,-6,0,3,-1
-2,-7,-8,-16,7,-1,-1,1
-3,-5,-6,8,-28,-6,-2,-2
-6,-6,-11,-22,-1,-9,-5,-1
0,3,-3,0,-2,14,1,-2
-4,-7,0,34,16,5,2,-1
0,4,3,-10,-9,-6,-3,-3
13,2,-1,3,18,3,1,5
-7,3,8,-19,-21,-14,-5,-5
3,-14,-3,3,8,8,5,2
2,4,-12,2,8,5,4,3
-6,2,30,3,-15,-4,-3,-8
-8,4,-4,-4,17,0,-9,-8
2,-5,-16,-6,-16,-2,2,3
5,5,25,0,7,-2,-5,-4
-8,-3,-18,5,2,1,0,-1
-5,12,18,-6,3,3,5,10
-6,-5,20,-1,4,-1,-3,-10
-11,-19,-14,-11,-1,-4,-2,-4
20,19,7,-6,1,2,14,4
-14,-23,1,15,0,-5,-8,-16
-3,-5,-20,-11,-18,-13,-27,10
9,17,25,18,25,7,2,4
-7,-13,-15,-8,-24,-1,-6,-4
0,-17,-17,0,5,-3,8,-2
7,-1,-6,-33,-5,-6,1,-1
-9,8,14,23,10,0,-5,-8
-18,-6,-1,8,-1,-6,-7,-10
15,30,30,3,4,9,-4,7
-11,-31,-40,-19,-17,-3,-3,-14
3,2,-14,-12,6,-6,19,18
8,-9,4,2,-3,-6,0,8
8,16,-7,8,3,1,6,4
9,-11,-17,-48,-9,1,2,13
16,32,60,57,10,4,-3,1
-16,-24,-33,4,4,3,-2,-10
0,-2,-7,-1,-6,-6,-4,-2
3,42,27,20,6,2,3,-1
-11,-34,-45,-40,-16,-4,-5,-5
-22,3,1,-3,23,-1,-11,-16
26,-48,-36,-17,-19,-5,-5,10
11,28,13,16,9,4,7,5
10,23,26,-14,-8,-1,-6,3
-7,-4,-8,-3,-9,-3,-10,-9
-3,14,1,11,8,5,1,-1
-45,-21,1,8,-10,-10,-4,-21
9,-31,-22,-15,-11,4,3,9
6,0,-14,-8,8,-1,6,5
-29,-50,-40,-15,-6,-18,-14,-10
64,48,14,8,-7,5,18,26
-20,26,5,-1,-3,-8,-17,-19
-7,-4,15,6,4,4,0,-3
-10,3,13,-24,-4,-2,-4,-11
1,14,6,64,5,20,7,5
-31,-78,-57,-12,11,-1,0,-11
25,31,22,-32,-16,0,10,21
1,26,28,51,21,3,0,-3
-22,-33,-22,-32,-15,-6,-17,-15
19,47,25,-8,-8,5,17,-4
10,25,63,19,10,4,-3,17
-45,-83,-105,-50,-23,-17,-9,-18
20,83,36,-6,8,0,-11,-18
-16,-7,-5,23,-20,-3,-6,-36
9,-40,0,-6,-32,-8,-6,57
28,47,24,17,9,11,33,28
-38,-80,-55,-70,-47,-30,-58,-27
-23,-28,-30,50,75,18,7,-5
-10,-3,-9,7,4,6,8,-31
8,41,4,1,-25,0,-12,-1
-63,-33,-13,-94,-42,-16,0,-71
14,59,42,81,3,1,-15,-34
59,-5,11,42,23,10,24,82
1,10,37,-4,14,4,20,-23
-29,-37,5,34,20,7,-46,-7
14,37,19,-50,-38,-8,9,-7
1,-39,-51,-16,-18,-11,23,-7
-4,7,52,11,25,5,-75,-28
5,-22,-71,-6,-14,-9,49,-1
-3,-24,14,-10,-2,5,1,22
24,38,-31,6,8,-5,-2,5
15,20,42,12,-5,12,37,31
-45,-43,-55,-49,-12,-10,-31,-40
38,52,14,48,40,31,65,39
-26,-23,-54,-88,-66,-42,-60,-52
20,23,64,85,74,21,-19,35
41,51,118,61,38,14,38,32
-44,-39,-54,-37,-48,-23,-45,-20
-32,42,91,30,43,26,-1,-79
44,30,-1,-17,-20,0,69,82
26,-66,-22,-13,1,-6,3,24
4,-43,-60,-39,-51,-14,0,15
-20,27,25,22,13,6,-13,-43
-48,-56,-43,-24,-18,-21,-38,-52
21,67,45,32,24,11,-3,33
36,66,-19,-10,-20,-21,-9,4
-63,-117,-98,-72,-38,-23,-32,-15
24,66,17,33,24,12,10,9
-4,23,2,21,0,6,22,5
23,-27,22,-39,9,-11,-26,4
46,32,48,78,37,23,36,34
-49,-60,23,-38,-17,-13,-38,-42
-20,18,-21,-62,-94,-29,38,-27
11,-48,-5,97,113,44,-49,22
17,80,23,-4,-9,0,29,37
-17,-54,-8,20,-16,-3,6,-13
16,4,17,-19,-6,0,-27,-6
-37,1,32,-22,-18,-2,22,3
39,79,42,6,-15,-4,6,-2
-19,43,73,-4,-1,-1,-19,-29
20,44,75,40,33,21,41,27
-21,-39,-33,-47,-37,-24,-1,23
-8,29,61,46,25,12,-15,-27
8,-29,-98,-48,-17,-8,20,20
-15,-84,-20,21,13,-1,4,-1
-1,41,0,-6,-10,-8,-11,-21
-28,-18,29,-27,7,5,-12,-18
15,35,44,31,-40,-12,9,2
-8,15,32,-17,3,-1,-13,6
5,-3,-56,2,20,5,-3,-4
-10,-42,-78,-43,-104,-40,7,7
-50,1,-24,48,86,32,-5,-31
82,-19,-69,46,23,15,16,48
4,44,50,-32,-30,-8,29,-18
-48,-40,-21,-12,-5,-6,-49,-30
0,-122,-126,-63,-34,-3,8,39
-34,78,24,30,22,13,21,-8
22,-113,-11,-18,-2,-21,-78,-37
-3,-28,-80,-13,-11,3,31,-17
26,-37,-47,10,-10,7,72,50
-34,-55,-60,-13,19,-13,-117,-34
2,75,50,-15,-16,10,69,57
-28,36,126,36,35,11,-61,-23
-10,-54,-110,17,-6,-19,5,-35
36,2,-58,-26,-34,5,-8,21
-19,-57,-50,-6,-11,0,10,-16
19,-61,-94,71,75,29,31,54
20,61,64,-8,-2,6,14,5
-42,-28,-36,8,-11,-3,19,7
26,26,-32,-21,-3,-4,-39,-31
-42,2,55,-22,-16,-18,-21,-21
-20,-83,15,-25,-23,-8,-13,-10
3,94,43,39,27,-6,9,-33
-13,12,60,37,6,9,-22,-1
9,19,-32,-44,-6,14,84,55
12,40,14,-23,-29,-22,-52,-7
-3,-45,0,-14,-3,-18,-8,4
16,82,75,8,7,14,11,1
8,-18,-32,-14,-23,0,18,-10
4,-45,0,-58,-11,-10,-14,-2
24,28,-40,82,56,19,28,21
-37,-85,-63,-59,-49,-19,6,-2
-33,-34,-32,59,70,38,7,-33
45,89,9,-8,-40,-19,-25,-5
7,-7,-22,-12,4,14,45,24
35,-34,-66,12,6,-6,-28,8
10,32,82,-35,-26,-12,-22,7
-46,-80,-28,5,9,2,-19,-41
-3,18,73,-41,-26,2,35,-23
10,-23,-32,24,6,5,26,36
55,67,20,10,1,-1,6,12
-1,37,15,34,23,6,-42,7
-58,-64,-2,-40,-38,-27,-13,-30
57,97,73,36,22,20,47,15
-38,-36,-105,-44,-54,-34,-51,-40
-12,-14,-35,10,58,18,46,30
-20,-38,-83,-9,10,-2,-47,-13
-7,-18,-5,26,-82,-23,-6,7
17,-50,-22,18,65,20,25,12
-96,-16,-40,-50,-67,-11,-27,-98
87,-65,-64,2,16,8,-1,66
-25,10,-21,-19,6,1,20,16
3,-19,-43,-17,-26,-11,-20,-18
36,95,-10,6,7,13,20,4
2,61,98,24,21,13,37,33
-18,-34,66,17,13,-1,-28,-18
-10,-16,31,-6,-5,-6,-29,11
-8,106,62,33,12,-5,-17,-20
74,-15,10,-32,-23,-2,8,3
-67,-82,-54,-47,-8,-17,7,0
7,42,-27,28,-10,-8,9,4
6,75,119,36,-14,-6,20,14
-18,6,55,20,4,-27,-99,-49
-47,-12,-53,-2,-34,0,9,-78
44,-45,-36,30,45,38,27,83
39,9,42,-16,-35,-15,11,17
-27,-6,-43,11,-11,-1,18,-2
10,-11,15,-23,22,12,14,-4
-18,30,39,3,-24,-6,-2,-31
14,23,-64,0,13,10,-10,30
35,40,67,16,12,24,40,51
-6,-13,-27,-8,-4,-13,-33,-24
23,37,61,2,-19,-17,-9,17
-7,-104,-113,-14,14,12,61,18
-37,19,-12,-4,-20,-6,-39,-35
12,28,9,-12,4,1,8,5
-11,12,-12,4,-13,-9,-42,-45
37,34,107,18,42,24,29,28
-20,45,36,-9,-15,-14,16,21
3,7,-37,-1,3,-2,-29,-8
-12,-21,-35,-29,-8,2,33,2
-5,-24,-6,-40,-55,-34,-39,-13
-11,-28,-19,26,47,10,-7,-31
3,17,32,15,7,0,8,24
10,1,8,-8,13,-1,0,-4
-9,-27,-40,-5,-14,-3,-15,-17
8,17,24,6,-3,20,9,5
-5,-19,-19,-13,-15,-11,-1,0
-18,-48,-40,-11,-5,-9,-7,-6
0,-30,-61,-11,-2,2,-12,-2
0,-25,15,4,-7,-7,10,-1
-2,6,72,4,10,-2,-10,-2
0,-20,-56,-13,-16,6,7,-1
-1,-24,-10,3,9,-17,-20,-4
-6,1,-31,-15,-21,-7,-6,-13
1,19,-34,15,20,35,21,9
4,22,11,-42,-7,-14,-8,3
5,27,81,90,12,-1,-6,-3
-15,-16,-56,-47,-12,-11,3,-13
6,13,46,8,4,-4,-10,6
-4,10,-3,23,-4,-4,2,1
0,9,-39,-32,-4,-6,-11,-6
-10,-3,-3,15,-17,-22,-19,-15
-2,-1,-48,-24,4,-2,1,3
3,-5,-36,-56,-8,-1,-2,-2
-2,0,85,64,6,8,8,9
-10,-11,-71,-21,-9,5,-5,-24
8,7,-57,-53,-1,-2,3,7
-5,-12,-18,81,-2,-12,-8,-4
-3,-7,-3,-71,11,-4,-12,-7
-5,3,16,68,-7,-12,2,5
-2,6,41,-34,-13,10,2,2
13,11,60,-5,-3,-2,2,0
-8,-32,-49,84,28,31,3,6
-4,-12,-17,-17,-23,-17,-14,-6
7,16,44,47,17,-4,-1,1
3,5,0,-16,-5,0,1,6
15,36,-20,-70,-17,-6,5,15
-13,-9,50,2,12,2,-8,-41
-23,-17,-98,-52,-25,-12,-4,6
22,34,127,100,33,15,0,1
1,-19,-93,-17,9,-7,-5,12
5,-11,-50,-40,-10,8,7,14
5,1,18,15,-2,-13,-7,-5
-35,-17,-19,23,-7,-7,-1,-17
25,10,33,-78,-7,18,7,3
3,-4,-17,-15,-6,3,8,12
-4,-25,-11,14,8,-1,0,-7
-3,-9,-20,-28,-8,-10,-3,2
-6,-10,-13,17,-11,-18,-8,-15
1,8,69,-2,4,9,3,12
8,-2,-46,-9,4,2,-2,-4
-2,-17,-26,-60,-12,-2,-2,-1
-12,-8,29,-11,-4,-3,0,-8
3,3,-21,1,-2,-1,-3,-1
-2,1,-9,-36,1,2,0,2
1,-1,48,96,14,6,3,4
-7,2,39,-15,-7,-2,-2,-9
1,3,-5,13,0,-3,-4,5
6,12,49,35,2,3,2,1
-3,-13,-91,-62,-6,-1,-5,18
-4,5,25,24,-1,-2,-7,-33
0,2,-14,28,5,1,-2,3
0,5,34,13,-1,0,1,3
1,2,12,-6,3,1,1,-4
-5,-8,-25,0,-4,-2,0,5
1,0,14,-15,6,-3,-4,0
-3,1,-13,5,1,9,2,-7
0,-2,0,3,-1,-3,-2,2
2,2,-24,-34,-4,0,-1,0
-4,-4,1,35,6,-4,-4,-3
2,-3,21,-12,-11,-7,-4,-1
3,2,16,9,6,2,4,-1
-1,-1,-5,8,-13,-2,2,2
1,4,23,-53,-2,0,0,-1
-2,-5,-52,12,5,-4,1,-3
-1,-2,-10,-38,-23,-10,-9,-4
-3,-7,8,-3,6,10,11,-1
1,9,6,-22,15,1,-1,4
-4,-1,37,60,8,0,-2,-2
-2,-3,-16,-19,-5,-4,-3,-3
0,-3,7,20,3,-12,-9,1
-1,-1,10,8,-11,-9,-6,-2
1,-1,-7,-35,-2,1,4,-3
-2,-1,-5,-14,1,-5,-5,-1
-1,5,21,58,5,6,7,2
-1,-6,-11,-43,-6,-3,-3,-1
0,2,18,43,2,-4,-6,1
-3,-4,-38,-50,-6,2,1,-3
-2,-4,6,33,-3,-8,-4,-1
0,1,5,24,3,2,2,-2
2,3,-6,22,4,2,-1,0
1,-1,25,-21,-2,6,4,-1
-1,-1,11,-10,-3,-3,-4,-1
2,2,-21,-1,7,6,2,1
-1,-2,30,42,-5,-3,-3,-2
-2,2,-2,-49,-5,-3,-5,1
-2,-5,-24,-26,-5,-4,2,-2
-1,0,7,-1,-7,-3,-2,0
1,3,-10,11,0,-9,-9,-2
1,1,10,26,11,24,14,1
-2,-1,5,5,0,-2,-4,-1
-2,-6,-30,-15,-1,6,1,0
0,4,19,-3,4,-1,0,1
1,-1,-31,-8,4,-4,0,-2
-6,-10,-21,-25,-5,-2,-3,-2
-1,1,6,-1,-5,-5,1,1
-5,-3,6,-2,0,-3,-1,-4
0,4,23,54,1,0,-2,-1
2,-1,-23,-32,0,4,0,-1
-1,-1,17,13,-6,-5,-6,-2
-3,-1,9,-9,3,-2,0,0
-3,-4,-18,7,-8,-3,3,-1
0,0,-33,16,6,-1,2,-1
-1,-3,1,3,-3,-2,-6,-4
0,-1,-8,-12,-3,4,-3,-2
0,2,39,21,0,-4,-3,-3
-3,-2,-16,3,-2,-4,-5,0
-2,1,-15,-24,1,-4,-5,0
-2,0,16,0,4,12,13,1
-3,-6,-5,-3,-7,-7,-8,0
2,3,20,16,2,4,5,0
-2,-2,9,12,-1,-1,0,-1
1,0,-6,5,1,-3,-2,-3
-3,-3,-6,2,1,-3,-3,-2
-2,-2,18,-8,-1,-5,-2,-3
