-1,8,33,-7,-17,-8,-2,-5
-5,-24,-49,-11,8,-3,-2,-2
-3,5,8,-2,-9,-3,-6,-2
-2,-3,0,-2,3,4,-4,-2
1,10,1,9,-9,0,0,-1
5,0,-11,6,-2,5,4,4
-7,-22,-21,-23,-10,-3,1,-1
-3,2,-7,4,1,-1,2,1
1,2,-3,-7,7,2,2,-2
-10,-6,9,-1,-10,-13,-14,-9
7,9,-5,4,2,2,7,6
-8,0,12,-2,-8,-4,-11,-8
5,3,8,4,-1,2,-3,-2
10,2,-2,-1,-4,6,8,9
-6,1,10,2,2,-3,-4,-4
1,-1,-8,-5,5,-1,1,2
-4,-5,-7,1,-9,-5,-4,-4
-3,13,18,6,2,1,-3,-6
-4,-8,-15,-8,-7,-7,-1,-2
5,4,2,7,16,3,5,4
-8,-14,-18,-9,3,4,-4,-2
1,8,13,9,-2,6,0,1
-3,8,11,-7,-3,-3,-8,-10
-5,-23,-9,-19,-16,-9,7,5
9,-10,-35,8,18,2,9,11
1,20,10,-29,-18,-4,-2,0
8,14,39,47,22,8,0,-1
-4,-22,-20,-5,-1,-4,-6,-6
-6,14,27,6,1,0,0,-2
-5,-17,-21,-7,-8,-7,-3,-6
-6,6,-4,-11,-7,-6,-2,-4
4,-8,-18,-13,-1,2,-1,2
3,-7,-12,-20,-6,-4,2,7
-11,3,13,23,13,4,2,-2
12,8,14,-3,-4,-1,1,3
3,11,6,15,7,1,-1,0
-6,4,-1,-2,4,4,-2,-10
-15,-15,-7,-23,-18,-10,-11,-9
7,-1,-8,2,4,4,2,7
9,14,-6,-22,2,0,1,3
4,11,30,29,9,1,0,3
-5,-12,-7,7,-3,1,0,-7
4,2,10,7,-2,0,2,6
-19,-44,-25,-8,-6,-1,1,-10
3,11,-5,-25,-25,-12,-4,-1
-9,-27,-26,1,9,-2,-3,-3
-9,0,4,-9,4,-4,-7,-7
8,25,32,-7,-6,3,-4,-4
13,11,11,27,13,3,4,5
14,18,19,3,-11,-6,-5,3
-23,-33,-30,-17,-11,1,2,-12
-3,-11,-13,6,12,-3,-2,-2
-23,-17,-18,-12,-7,-5,-8,-18
26,24,6,0,17,12,17,20
16,17,24,15,-2,-1,2,10
3,22,37,13,1,-1,-2,0
-24,-48,-40,-25,-14,-9,-17,-16
0,1,-9,-5,-6,2,3,2
-3,-3,0,-15,1,-3,0,1
-14,-16,-11,11,-1,-3,-3,-4
12,13,21,8,10,4,4,4
-17,-42,-60,-16,-16,-13,-7,-10
1,30,36,-5,5,2,0,-3
13,9,-26,-20,-7,1,7,8
-9,-6,24,70,21,-1,-7,-6
-8,-23,-4,-12,-5,-2,-2,2
12,29,-1,-32,-5,0,-1,1
-14,3,21,1,-12,-1,1,-2
-1,9,42,38,23,9,4,2
-1,-19,-16,-13,-7,-3,-7,-5
11,-2,-1,1,-2,-2,2,1
1,19,1,-9,-17,-3,1,0
-5,-20,-48,-40,-5,-7,-8,-1
-7,2,32,21,13,5,2,-5
-7,-12,-27,-19,-9,-3,-4,-2
-10,-34,-25,-1,0,-1,2,-9
6,17,14,-7,-6,-4,-11,1
14,49,30,24,14,4,20,14
-28,-41,-65,-42,-10,-8,-16,-16
54,12,33,50,8,5,12,27
9,30,-9,-47,-7,-2,-10,-5
-28,-25,-4,19,-5,-9,-18,-16
14,18,-14,11,9,6,8,2
-16,3,18,-32,-25,-3,-3,-1
-2,-23,-24,21,20,8,4,-1
9,9,13,-21,9,4,0,2
-16,-32,-42,-18,-10,-5,5,2
5,29,6,11,0,-1,-13,1
9,-15,39,16,-4,0,13,12
-19,-42,-43,-24,-1,-10,-19,-23
19,5,-27,21,24,6,18,26
-24,2,15,-12,-1,-5,-20,-16
-24,12,-5,-9,-13,-3,-7,-25
27,35,-23,-2,1,2,0,21
5,-15,61,16,-1,2,-1,18
-8,23,4,7,10,-4,-12,-2
11,-16,-16,-8,-5,4,18,0
-47,-50,-42,-31,-24,-16,-33,-33
22,35,69,35,4,7,6,22
-8,-73,-65,-25,-17,-19,-19,-12
-21,-8,-14,-31,-35,-2,57,-4
8,56,52,24,35,9,-32,1
2,-51,-78,29,44,13,19,-27
37,76,70,35,55,9,10,70
18,13,-4,-18,-27,-11,-11,3
-14,-21,5,6,-5,10,74,-6
-67,-8,2,-3,-38,-11,-59,-123
49,16,-31,-1,7,4,-13,39
38,37,13,10,18,9,-3,26
11,19,32,4,0,4,24,-16
-11,-23,-25,-8,-9,-8,-6,-14
-42,-20,-1,-13,-20,-8,-25,-114
-13,-58,-56,-2,14,5,5,34
31,50,76,26,5,24,57,54
-20,39,29,-24,-16,-19,-35,-26
-49,-34,3,-4,-6,-1,-25,-60
49,43,6,15,16,-10,-55,-11
11,-47,-50,-28,-16,-9,38,36
30,56,91,25,7,6,40,62
-4,45,68,2,-6,11,30,9
-20,2,45,20,11,4,-36,-69
-25,-56,-71,-40,-26,-16,-34,-22
19,-19,-31,16,4,3,50,47
-3,69,73,-8,-24,-18,-42,-33
-27,-38,-46,-18,-5,12,58,-12
-4,29,90,11,4,-5,-60,8
26,-41,-61,-27,-13,-9,1,-3
-2,-56,-116,-7,-10,-20,-41,-1
9,-15,-35,30,17,13,19,37
7,76,41,4,-4,4,5,-19
-26,2,-28,-37,-36,-9,2,-29
16,-16,-24,33,50,37,65,15
-14,17,55,-13,-18,-20,-41,12
-8,-64,-45,16,-4,-7,-10,-38
-1,20,-31,-16,-11,-2,-29,3
-18,-87,-70,-13,-1,-1,34,33
-42,5,16,-14,-19,-7,-4,-5
60,8,-4,48,38,16,0,-6
10,45,-26,-14,-3,5,24,5
17,-35,-20,21,3,-10,-24,47
-2,-28,-37,-22,-3,2,9,-9
-24,28,41,31,5,2,22,-33
-6,-41,-27,-31,8,4,-26,0
8,71,41,8,1,8,3,-29
12,-55,-67,2,20,5,35,43
-30,-48,-58,-12,-39,-15,-51,-50
19,18,-25,9,24,8,13,37
-18,16,31,1,-7,-4,10,-10
20,-6,14,21,-18,-6,-22,-40
15,73,30,-27,-1,11,30,37
-22,-77,-70,-15,-13,-9,-5,-19
15,-42,-57,38,24,-5,-12,26
5,48,52,5,18,14,27,14
-41,-87,-50,-19,-17,-21,-69,-49
26,60,68,-2,7,7,27,28
-10,62,75,-31,-21,7,30,-21
-25,-49,-55,-19,-16,-3,-1,1
8,72,-8,-4,2,-12,-5,-31
6,-44,-18,17,2,-2,-19,28
9,83,57,-23,-19,-8,-4,-35
10,30,-35,-12,-10,-13,3,1
-52,-17,18,-2,22,21,42,19
6,31,46,54,21,-12,-97,-85
26,-50,-71,-10,0,16,55,110
-8,-14,48,-12,2,-7,20,-10
13,-12,-24,-26,-67,-28,-7,31
-27,9,40,36,42,6,-25,-64
-29,6,19,28,24,15,25,2
-12,82,17,10,0,-17,-87,-40
37,16,34,18,-5,4,40,55
-52,-73,-87,-25,-14,10,59,10
20,6,-13,-57,-23,-22,-124,-93
54,22,13,9,2,11,90,100
3,1,-5,-4,9,-3,-34,-11
9,20,26,-16,-23,-20,-23,-25
12,32,13,36,18,15,70,56
-24,-46,-40,-64,-21,-9,-27,-38
15,37,2,18,6,-6,-29,14
5,32,105,37,16,10,46,13
-24,17,5,-11,-18,-6,8,-22
9,27,90,-26,-42,3,-21,-25
22,11,32,15,50,14,18,50
-9,44,42,19,-2,3,-6,-14
-19,-74,-70,-19,-15,-16,-2,-10
-29,-9,40,-22,-17,-14,10,-45
3,-7,-67,-6,-13,-11,-53,-27
61,24,13,7,11,12,72,95
-43,-87,-71,-7,-13,-23,-24,-20
-36,17,-14,31,11,-3,-14,-16
-4,-3,-15,-49,-17,4,34,-44
5,65,14,47,6,1,-1,-9
-13,-75,22,-49,-4,-6,-14,19
1,-59,-23,49,15,10,28,-2
13,4,33,18,-18,-8,-32,17
-25,-39,-68,-111,-27,-13,-34,-22
24,49,47,85,30,20,31,2
-4,-24,-32,-26,-23,-16,-25,-5
17,80,34,16,26,9,12,-5
-27,-65,-28,-27,-28,-33,-39,-6
-18,-6,-28,-3,-9,-27,-31,-24
27,70,50,47,52,83,73,25
2,53,73,16,4,10,0,9
-36,-50,13,40,9,-22,-15,-32
48,70,65,26,21,87,70,12
3,45,27,-42,-11,-60,-99,-15
-6,-59,-105,20,21,52,37,26
-27,-84,-12,-47,-6,13,-32,-5
-7,29,-49,12,10,7,-8,-28
17,-77,-26,-53,-15,-5,-10,22
-19,-15,-16,23,8,-7,43,25
11,-7,-56,46,12,-43,-44,-8
-32,-109,-112,-93,-47,-15,-39,-31
31,70,19,66,60,26,27,-3
-13,-61,-2,-13,-26,-34,-4,-9
18,38,1,22,6,21,27,26
0,7,35,-3,-3,-21,-15,-14
-13,18,-49,2,-7,3,-16,-1
3,-23,55,-9,5,12,31,-26
16,16,-10,21,2,22,44,83
7,63,72,14,20,-7,-60,-40
10,-41,-107,-35,-20,-8,9,58
-21,2,51,1,10,-7,-24,-48
35,98,97,49,14,19,62,24
-34,-55,28,-11,-2,-45,-46,-8
13,13,34,-30,-7,20,28,-29
11,18,5,16,-3,-7,-25,5
-11,1,24,-60,-19,10,13,0
23,-2,14,42,20,-20,-62,9
-13,-4,22,37,2,0,39,52
-46,-84,-128,-71,-19,-7,22,-8
49,49,45,-4,-10,-2,-14,-14
2,10,38,25,30,4,0,9
-11,7,-34,-54,-7,-18,-10,-1
-6,-40,-23,9,-20,-27,-39,-14
5,-16,0,20,7,9,31,34
17,90,50,20,-9,1,-2,-14
-30,2,53,12,-10,14,29,-56
9,21,19,-10,26,-10,-40,20
-5,-19,-43,-40,-29,-16,8,28
11,-1,-22,-35,-35,-18,-8,7
-6,19,27,-4,20,16,14,-14
-25,-60,-51,24,-46,-14,-12,-37
-3,-8,9,41,37,13,1,23
2,10,5,-62,3,20,83,51
-5,-28,-101,-48,-17,-33,-48,-18
-17,-3,29,-38,-79,6,13,-44
-3,-26,-55,52,77,9,-50,-46
-15,-6,8,21,-15,7,17,18
-1,-36,-46,5,-1,-17,-30,-36
4,49,21,-8,19,-1,43,29
-4,-1,64,-5,-19,-15,-68,-78
31,-42,-4,9,1,22,67,88
-31,-73,-55,-18,-6,-26,-73,3
29,59,9,5,11,33,127,17
-36,-18,63,0,-22,-31,-104,-26
-32,-87,-128,-51,-24,-26,-13,-57
26,28,94,66,20,36,67,34
12,14,-6,-26,20,-12,-7,40
-37,0,-42,-25,-22,-9,-41,-48
3,-19,-52,-32,-25,5,-12,-83
27,15,-34,38,35,2,28,107
23,-1,13,0,4,21,17,1
-1,-4,-13,-13,2,10,24,24
-1,19,-4,-7,3,5,28,4
-24,24,21,25,-4,-19,-76,-70
10,2,8,5,22,15,-41,17
-20,-57,-35,3,-17,-3,69,1
13,37,-52,-19,-9,-6,3,11
12,-2,-13,-17,-13,1,100,-16
1,2,-12,9,6,-29,-128,21
9,10,-13,3,-8,7,34,-1
-6,1,20,28,12,-1,-14,-25
-14,13,-12,-58,-21,-4,-39,-11
9,-24,-4,69,28,10,75,24
11,83,33,-3,15,12,7,1
18,51,54,49,21,11,-2,17
-8,-20,0,-25,-25,-4,-1,-9
-19,-24,0,-28,5,1,-14,-13
-1,26,29,-40,-11,2,-5,-15
-1,11,53,6,22,4,18,-5
-26,-53,22,87,-7,-12,-43,-47
27,8,-26,-46,25,19,49,61
1,-3,-93,-45,-39,-23,-2,4
-29,-57,-37,-25,-20,-8,22,-21
-39,-9,-15,-6,-2,-24,-110,-111
48,52,-7,35,1,12,13,57
9,12,-11,-60,13,18,-1,27
14,11,12,68,-2,-21,-30,-4
-25,-47,-1,-6,-4,-3,5,-2
-13,-4,-26,-14,-3,-16,-50,-61
-5,6,25,-1,-20,-1,33,-32
9,0,43,24,-4,-2,7,59
27,-20,-34,-49,-30,-18,25,83
0,32,-5,18,39,20,22,-18
-27,-79,-78,-53,-63,-7,30,-16
-22,36,31,56,84,4,-38,-36
28,29,-16,-4,15,-14,-19,13
-47,-46,9,-9,-19,-17,0,-18
38,6,33,6,-6,11,31,30
-28,-4,-20,-24,-29,-13,-35,-34
47,38,3,-8,21,12,6,75
-34,-28,-6,-3,-16,-10,-14,-38
-36,-52,-34,10,-1,-4,53,-38
11,-62,-108,-28,-11,3,-61,8
6,33,45,22,2,20,74,53
10,-8,12,1,-15,-14,-21,-44
-2,-20,17,31,20,2,-20,-2
6,2,-44,-22,-7,12,40,12
-14,13,-2,14,-5,8,7,-32
18,20,16,1,3,-2,-18,16
11,22,4,3,7,-5,-25,2
-1,9,14,-1,-4,5,29,22
1,17,23,21,24,1,-22,-22
-6,31,37,-1,-12,-8,-6,-22
-14,-42,-36,9,-6,-17,-35,6
4,8,24,-12,-29,-4,32,2
4,-10,-20,-6,-7,3,22,11
-4,-11,-3,16,32,5,-10,-9
4,19,1,8,3,-6,-21,-3
0,2,12,-9,-15,-7,-3,6
-3,0,14,-5,2,21,1,-18
-7,-18,-20,-14,-24,-13,11,7
5,12,5,11,10,6,-7,6
2,-5,-3,-12,7,2,17,5
-3,-4,8,9,-1,-3,-6,-15
-1,3,8,-10,-10,-7,-8,-7
2,7,3,27,24,4,7,8
-2,-1,-3,-2,4,4,-1,-1
-5,-1,17,-16,-6,-6,-5,-10
-1,4,-6,12,-12,0,-4,4
1,1,4,-7,4,-1,-6,-2
-3,-7,-38,-30,-17,-5,2,5
7,16,34,39,32,10,3,-2
-5,-7,11,-13,-7,-3,0,-5
1,-3,-6,23,2,0,-5,0
-1,1,41,2,0,-7,-3,-2
-1,-3,-86,-21,-20,-17,-5,-4
-3,-6,-26,-21,0,22,14,2
0,17,-18,-28,1,8,0,1
1,5,7,26,7,12,7,6
0,6,37,12,3,-7,0,-7
-1,-11,0,17,1,-14,-5,-3
2,-6,17,-2,-6,-3,-4,-1
0,-2,-29,-51,-11,-3,2,-1
-1,8,48,53,8,-1,-5,-1
0,8,-10,-23,2,-1,-7,-2
4,15,41,61,2,1,1,3
-4,-8,-1,-36,7,-3,-4,-2
-5,-14,-13,-4,-16,-4,-4,-6
2,-2,-3,-8,-11,-4,0,1
-5,-10,-35,30,10,-2,-2,-2
4,9,20,-36,-10,1,-1,5
-9,-8,-39,49,0,-10,-6,-7
2,-6,10,-36,-12,3,-12,4
0,-8,26,15,13,0,16,3
-8,-14,26,15,-12,12,6,9
5,-9,-47,-19,9,8,3,-16
8,17,14,-24,-8,-1,6,6
-1,-3,0,3,-3,-1,-14,-1
-3,-2,30,35,-7,-11,-2,-2
-6,-4,-10,-13,0,-2,0,2
-2,-3,-16,15,14,-5,-5,-1
1,6,19,25,-2,0,-3,-1
2,10,-15,35,9,-1,-1,-4
-3,-11,-14,-18,-13,-1,-5,1
-3,-3,2,51,17,-2,-3,-1
0,-1,-2,-77,-27,-2,2,5
5,12,-4,20,16,-2,-6,-3
-11,-21,-32,-50,-26,-8,-6,-4
-6,-10,-14,36,10,-1,0,-3
5,-2,-10,-55,-14,-8,0,0
-11,-5,-14,26,4,-8,-11,-9
12,37,65,-15,11,21,23,25
-8,-20,-30,-46,-12,3,-1,-25
-3,-2,9,86,17,0,-2,0
1,-4,47,26,-2,6,7,-6
-3,-5,-50,-12,-8,-9,-8,2
-6,0,19,2,-5,-7,-1,-2
6,4,34,47,11,-3,-13,-8
10,0,-24,-21,4,0,-2,5
-2,0,4,11,7,-3,-4,-4
3,14,67,8,-4,0,1,6
-5,-9,-40,-74,-12,-5,-3,-7
-3,-1,21,29,0,1,-2,3
0,-3,4,-46,3,1,-2,-5
16,27,-10,22,0,3,11,29
-9,-16,11,8,7,4,-2,-21
-3,-15,-78,-45,-13,-4,-2,-4
5,20,41,73,6,0,3,0
-15,-15,-39,-50,-9,-10,-8,-8
5,1,7,-28,-11,-6,-1,14
0,2,5,-32,2,7,6,0
3,8,75,28,-2,1,-1,-7
-3,-10,-59,-34,-5,-5,-2,-2
-5,4,45,28,5,15,2,6
16,2,-29,18,3,15,14,-3
2,10,21,-23,0,1,3,7
-6,-16,-49,-29,-5,-4,-5,-11
-5,-4,-23,-20,-9,-11,-10,-3
-7,-5,6,23,4,-2,-5,0
-3,-13,-25,-10,-10,-2,0,-5
3,1,22,-1,-10,-6,-4,0
-1,1,-33,-75,-4,-2,1,5
-6,1,35,62,8,-4,-5,-13
