-1,-2,-11,0,6,-3,-1,-2
-2,-6,-9,-4,0,5,-1,-3
-1,1,18,15,6,-1,-2,-1
-2,-3,-28,-36,-5,1,1,0
0,-1,19,5,-4,-2,-2,-1
-1,0,2,13,-2,-1,1,-2
-1,-3,0,3,-9,-2,-1,-3
0,0,-13,-6,-1,-2,-2,-2
-1,1,11,-4,11,-3,-1,-3
-1,0,1,-7,-27,-6,-2,-1
-2,-3,7,12,9,2,0,-1
-1,-1,-14,-13,-1,-1,-1,-1
-1,2,12,16,1,1,1,1
-3,-5,-13,-14,-7,-2,-4,-2
0,-1,-10,-4,-1,-4,-3,-1
-1,-2,-6,-2,-4,-1,-3,-3
0,-2,7,3,-2,-1,1,-1
-1,-1,-38,-25,1,-2,0,-1
1,3,16,29,3,1,0,0
0,1,8,-4,1,-1,0,1
-2,-2,-9,0,-5,0,-1,-1
0,2,12,13,6,0,0,-1
-2,-2,-11,-26,2,-1,-1,-1
-2,-2,1,10,-3,-2,-2,-1
-2,-4,5,-7,-12,-2,0,0
1,-2,0,5,8,3,0,-2
-1,-3,-11,-4,-1,-2,-1,-2
0,-1,15,28,-10,-4,0,-1
-1,3,3,-46,6,-4,-5,-3
0,-1,-6,29,9,9,3,-1
-1,-2,4,-8,-8,-2,-2,-1
0,-3,-3,-4,2,1,0,0
-1,-3,-1,6,-2,0,-1,-1
-2,0,2,-8,-5,-6,-2,-1
-1,-1,0,-3,3,0,-1,-1
-1,5,3,-4,0,0,-1,-1
-2,-6,-19,-6,2,-1,-1,-2
-1,-1,6,-3,-5,-3,-3,0
0,3,3,13,2,0,1,-1
-2,-5,-3,-11,-4,-1,-3,-1
0,1,-7,-1,0,2,1,2
1,0,-5,-10,3,-2,-2,-1
-1,-1,-15,1,-6,-1,2,-1
1,2,-4,-19,-8,-1,-1,-3
-1,-2,17,27,15,1,1,-1
0,-4,2,3,1,-1,0,0
-2,-2,0,-13,-5,-7,-4,-1
-1,0,3,16,-10,5,1,0
-3,-2,0,-11,1,1,0,-2
-2,-1,-40,-44,-1,-5,-3,-2
0,0,19,24,21,6,0,1
-2,-3,0,-4,-6,-6,-2,-2
1,-1,1,4,-4,-2,-1,1
-1,-2,6,5,0,-3,-2,0
-1,-1,-9,-14,-11,-1,-1,0
-2,-2,-10,-2,6,-2,0,0
0,2,5,17,0,0,0,0
0,0,13,-8,-3,-1,1,-1
-1,-4,-4,2,-2,-1,0,0
-1,1,6,1,-3,-1,0,-2
0,-2,-9,7,12,-2,-1,-2
-1,0,7,0,3,2,0,0
0,1,21,-3,-7,-4,-1,-3
0,-4,-16,2,-20,-4,-1,-2
0,-3,-6,-13,8,1,0,0
-2,3,10,19,-6,2,-3,-2
1,-2,-8,15,15,5,1,0
-1,3,14,-19,-3,-2,-3,-2
-3,-2,16,37,-9,-2,-2,-2
0,-3,-31,-44,-6,-3,1,-2
-2,1,-9,-13,-4,-1,0,1
-1,-2,-3,-1,2,-1,-2,-2
-1,1,4,2,-3,-2,-3,0
-1,0,7,9,5,-1,-1,-1
-3,0,-1,-3,-10,-3,-3,-2
0,-2,-2,6,11,0,0,1
0,1,0,-2,-2,1,0,0
-2,-3,-2,0,-6,-4,-1,-2
-1,-1,-4,-11,-4,-5,-2,-3
-1,-1,-2,-1,2,0,1,-1
1,3,3,7,12,2,1,-1
-3,-3,-4,11,-2,-4,1,0
0,0,19,22,0,4,0,-1
1,0,-8,-20,22,4,1,3
-1,-2,-19,1,0,-3,-1,-1
-2,-1,0,-3,9,2,-1,-1
0,0,10,-1,-5,-3,1,0
-3,-2,-13,1,-4,-4,-2,-2
-2,-2,-3,-7,-7,-3,-2,-2
1,0,11,-8,-1,0,0,0
0,-2,-9,12,-3,-4,-1,0
0,0,8,-18,-7,-2,-2,-2
-1,-2,-6,-15,-10,-1,0,-1
-1,-3,0,12,2,-1,-3,-2
-1,-1,-1,-8,0,0,-2,-2
-1,-1,-9,7,4,-1,1,0
0,-1,-1,-8,1,1,0,-2
-2,-4,11,7,-11,-3,-4,-2
-2,-2,-14,-5,7,1,-1,-6
0,-2,17,33,7,1,1,5
1,-3,-18,-56,-16,-2,1,2
-1,1,-33,9,-2,-4,-1,-3
-2,1,-11,-17,10,2,1,0
-3,0,5,2,-4,-2,-3,-5
0,2,6,7,0,-1,0,-1
-3,-3,0,-24,-17,-7,-2,-2
-1,-5,-20,5,-16,-6,-3,0
-1,0,-6,15,21,3,0,-3
0,1,2,4,-9,-3,-2,-2
-1,0,1,15,30,6,1,2
-1,2,9,-9,-4,-3,-5,-2
0,1,10,-1,-16,0,2,0
-4,-4,-3,3,10,2,2,2
-3,-2,14,3,-4,-1,4,-6
-4,-3,-2,-4,-2,1,3,-15
3,0,-8,-11,-5,-10,-18,22
8,4,3,13,9,2,8,9
-1,-7,-2,-23,-11,-2,-6,-5
1,15,19,25,4,0,2,-2
-5,-6,-5,-16,7,0,-1,-14
-7,4,26,58,-15,3,-2,-4
-2,-12,-49,-58,-10,-3,-1,-1
3,-5,-10,32,-6,-7,-5,0
4,4,10,-34,5,0,2,-3
0,-1,-4,19,-3,-5,-7,0
-1,10,19,-2,-2,0,2,0
-6,-4,-9,-36,-14,-1,7,1
2,-1,-4,-2,-18,-3,-14,3
0,-6,-16,4,12,-1,1,-4
-4,0,14,29,2,1,-4,-12
-1,-3,1,-7,5,-4,-6,0
-4,2,-8,1,-8,2,13,9
-2,0,22,-1,2,2,1,-7
12,3,-3,15,7,6,11,12
10,16,14,-19,1,2,-8,6
-10,-21,-19,15,1,-9,-6,-16
1,0,6,-31,-11,0,3,6
4,11,23,24,3,0,2,4
-7,-11,2,16,9,6,1,-7
-2,3,3,-4,-5,3,1,-5
-17,-10,-15,-19,-4,-9,-11,-14
-3,-4,-5,-8,-12,-7,-2,-5
34,13,0,1,15,9,8,20
6,0,-9,2,4,3,4,0
-6,-8,-15,-4,0,0,1,-1
-6,-2,3,-1,4,0,-4,-4
-13,-2,-2,-20,-45,-7,-7,-5
11,2,11,20,2,2,3,1
-14,4,-2,0,6,-1,-2,-5
-2,3,21,-2,-11,-8,-13,-9
22,-7,-26,-3,17,9,17,24
-29,-8,0,-15,-12,-6,-1,-11
19,5,-23,-14,-10,-2,-7,-4
0,-3,11,13,8,3,5,6
-18,1,0,-4,0,-7,-16,-8
4,-3,-17,-12,-6,-3,-2,-5
-1,23,15,0,0,-1,-1,-4
29,-33,-8,26,15,9,13,17
-19,-11,-30,-30,0,-3,-2,-9
-14,1,5,4,-6,-4,-7,-11
9,1,-7,-21,-5,-2,-3,4
-1,22,15,-4,-24,-5,-5,-5
-11,-12,6,27,18,4,5,4
8,16,5,17,5,-2,-4,-5
-47,-13,-12,-26,-17,-8,-8,-22
50,15,17,-14,1,2,1,14
30,-33,-22,11,-1,4,5,20
6,-2,-10,-8,-1,5,10,14
-15,-19,5,15,-4,-6,-1,1
-40,-17,-26,-16,-3,-6,-9,-21
-15,33,9,-9,-6,-9,-13,-26
18,9,-4,11,10,4,8,15
19,0,18,-10,3,3,3,7
-25,-23,-13,14,3,-6,-9,-5
6,5,-3,-12,-4,-4,1,-2
-18,-27,2,0,-34,-16,-13,-14
-15,5,0,16,40,13,4,-2
-12,-7,-13,3,35,11,3,1
27,-20,-38,-2,8,-2,-2,5
-4,37,39,1,-7,-3,1,-4
-13,-19,-18,-56,-65,-16,-6,-7
-1,6,12,40,-28,0,13,3
13,42,-1,2,46,15,-2,8
-4,-56,-17,34,26,6,-4,0
2,2,-9,14,14,4,-11,-10
-5,11,-16,-16,4,0,7,7
-35,13,15,-78,-78,-17,3,-23
12,-21,-4,42,72,15,5,13
28,17,19,-10,-29,-19,-14,9
-36,-18,-6,-24,-5,-2,10,-5
18,4,-1,23,31,-2,-30,-8
-12,2,-10,-2,-15,-3,9,-3
6,-5,-29,14,25,14,40,22
22,8,-1,-3,-14,4,-5,-2
-29,-21,11,20,4,-10,-24,-13
15,50,2,-48,-61,-19,-5,1
5,-23,-20,9,35,-5,-15,-5
7,36,13,19,-15,12,22,-5
-5,-23,0,-4,14,2,-27,2
-30,-22,-24,7,0,-18,-23,-26
4,17,11,-49,-39,9,20,0
21,-10,-17,18,25,-6,-18,14
-22,4,5,46,10,11,17,-23
9,13,-12,-31,0,2,16,27
26,6,2,19,36,5,43,6
-35,-43,-10,-44,-42,-27,-69,-32
59,94,55,36,42,8,27,-3
9,-99,-13,-47,-37,0,-23,16
-10,-12,15,63,62,10,16,24
-25,-10,27,-27,-17,0,-4,-23
-14,-26,-23,-6,-25,-17,17,12
30,127,23,-47,-15,-12,-11,-15
4,-88,-19,69,44,17,-7,-14
35,42,-5,-22,-15,9,29,43
-45,-36,-5,-24,-27,-18,-24,-7
-34,-1,-26,12,24,31,18,-17
59,9,22,-8,-62,-7,28,16
-49,3,-34,-23,17,-20,-45,-36
90,59,39,67,46,37,42,16
-57,-54,-1,-10,-36,-3,8,75
-10,29,-14,-17,-15,-17,-30,-19
-24,19,8,-57,-25,-4,17,-21
-4,-23,-2,48,47,9,-7,3
15,-13,27,7,6,7,8,-12
-16,47,0,23,10,2,6,2
0,-37,-13,7,9,-7,-23,-9
-21,19,-14,-53,-81,-24,-21,-23
1,17,68,27,-3,-3,26,-10
-21,-27,-15,-26,9,0,-21,3
-3,-5,-24,-25,7,-5,22,-6
-18,-10,25,47,31,2,-17,6
-13,-40,-25,-1,-7,-6,-24,-50
-33,-12,-4,-39,-26,-25,14,-53
72,51,26,50,-1,10,-33,63
-28,-43,41,-38,10,1,32,50
46,50,-45,17,13,6,-1,18
-41,61,14,21,-50,-25,-52,-18
-10,-44,-19,-22,-31,-17,-8,-31
-6,-77,-27,-4,32,34,62,-10
-1,27,18,33,9,-21,-45,5
24,-10,25,-73,22,14,6,5
80,63,45,69,70,30,33,46
-28,4,23,-50,-58,-16,-38,-26
18,-19,-28,-86,3,-18,37,5
8,28,1,95,63,40,-14,14
1,11,22,22,0,-1,25,11
-49,-18,-30,-40,-35,0,21,-14
75,19,43,2,29,-1,-35,21
-5,26,22,53,22,9,30,30
-28,-56,-52,-40,-37,-15,21,-6
4,34,-49,66,41,-1,-50,4
-42,21,-20,4,-32,-1,-17,-55
29,-72,-40,-27,-23,-10,-22,17
-5,-14,-12,3,-9,-3,31,4
-4,45,-8,-26,-19,-14,-40,-32
-1,-70,17,-3,-84,-13,-35,-50
9,33,-5,-28,4,-1,18,65
5,44,20,5,77,15,-1,8
-10,-1,40,40,1,-2,1,-30
-23,0,-20,8,46,0,25,13
-43,-26,15,-30,-59,-3,-20,-38
35,4,-35,-5,-75,-31,-33,-12
29,5,15,-15,24,-16,-25,13
-30,-37,-16,-34,21,4,-6,-42
-39,52,-15,69,46,19,42,1
-28,-26,21,6,-22,5,-32,-64
15,-18,6,15,-1,-4,36,80
2,-32,-36,55,9,5,6,-41
33,22,-10,-84,-65,-13,-19,48
-9,-3,-12,27,66,30,28,-1
-13,-33,18,-19,-11,0,-9,-42
4,109,55,23,44,15,33,51
3,-91,-35,49,-45,3,-12,-39
-28,11,18,9,-36,-16,-11,-20
-10,-18,-54,-36,-19,2,11,3
-16,18,-27,-43,9,9,32,17
66,47,33,8,5,-6,39,-10
8,29,41,-21,-25,22,-7,51
-41,-12,-2,26,53,2,4,-11
37,53,-63,19,13,3,-14,-19
-54,-107,-29,-45,-35,-11,34,1
16,43,5,-79,0,-10,-27,1
-10,20,33,64,0,3,8,-20
-33,91,4,2,-4,33,97,-20
85,-70,52,14,38,-25,-128,22
-48,-9,-17,12,21,-9,6,-10
23,-23,-42,-64,-58,-12,-1,-23
-12,-23,27,-21,-34,0,5,29
-27,0,-14,13,67,-4,-14,-57
-19,-21,-41,-54,19,4,-5,3
27,-9,97,104,-22,23,15,29
-1,-30,-81,-68,-15,-12,6,-8
10,112,100,-24,-5,8,-27,17
-5,-73,-87,12,49,2,65,28
5,14,-8,-73,-19,-24,-81,-2
-10,-76,11,102,0,24,-6,-14
-8,-10,-24,-48,-46,-41,-23,-1
-8,47,52,-16,-77,-35,-4,-21
7,54,-9,38,69,24,9,9
26,-83,19,-32,-30,-23,-77,10
-34,36,-9,19,59,31,46,6
-2,8,20,18,-51,-21,-27,-54
-8,-65,-3,-9,-10,2,19,20
19,36,2,39,-6,-20,-15,9
-30,48,12,31,19,15,10,-33
53,60,-29,-49,-37,12,13,22
-26,-20,-29,15,68,13,-5,18
-3,-14,3,-92,-55,-25,-9,-27
17,-21,-14,59,63,53,63,40
-8,55,45,109,21,33,-8,-24
24,54,-22,-52,-52,-31,13,41
-9,-78,50,13,-28,28,65,25
-16,49,-96,-53,-81,-50,-86,-19
-25,-65,7,13,24,6,0,-46
53,90,38,-47,-53,-5,54,16
11,98,48,116,126,23,5,36
-42,-9,5,-40,-37,-14,-50,-75
35,-34,-26,9,-17,21,16,59
1,-41,13,-39,-27,-53,-49,-27
14,45,-24,-36,-1,-4,48,43
-16,16,35,-4,-50,-23,-39,-29
13,-17,-23,44,97,32,-5,28
-1,-30,-24,-32,-22,-2,-7,-44
-11,-25,-60,56,66,26,13,-12
6,-58,-16,-34,-32,-5,91,43
32,-14,61,34,33,-38,-68,57
-56,-42,-83,-83,-48,0,-14,-51
20,-25,19,79,-11,-30,-26,18
-21,10,12,-19,31,29,9,2
30,-27,40,31,-7,-16,11,-10
-15,27,9,-19,-32,5,28,-14
-1,11,18,34,38,8,-85,-45
22,3,-12,-26,-4,-20,19,67
-12,-31,2,-31,-7,4,16,-42
25,47,39,97,21,23,6,42
-52,-28,-87,-74,-49,-7,-3,-58
-15,-6,41,8,1,0,-19,-52
9,50,-96,-29,4,-2,-11,43
-18,69,3,-66,-55,-22,20,-26
47,-4,5,44,26,45,32,65
24,6,0,11,8,-9,4,-16
-58,3,31,-12,-22,-22,5,-35
2,-13,-10,-16,34,-41,-74,-9
20,26,53,-33,-12,8,14,37
-2,27,45,18,35,21,44,-17
0,4,-42,-12,-5,5,-37,-17
8,-5,11,60,46,17,26,38
-22,1,38,-44,-39,-40,-69,-33
-12,-44,-67,-29,-16,-9,-12,-27
6,-23,29,54,-23,18,43,8
7,-19,5,48,44,-6,-10,-6
-1,-33,-15,-70,-36,-14,-14,-7
16,-6,3,12,25,20,16,16
-15,12,24,-13,-23,-39,-8,-20
-8,-25,-24,-1,0,1,-34,-15
-6,14,20,6,6,19,30,19
4,-5,-22,8,8,8,-6,2
-9,-3,47,7,18,17,14,0
-1,-19,-59,-23,-22,10,10,10
-17,14,34,2,7,-17,-21,-21
6,-21,-19,-40,-77,-26,-21,-6
1,18,7,46,52,29,26,9
2,-13,4,-3,-41,7,21,2
-7,-2,-9,4,41,-7,-6,-11
3,-5,3,-15,-19,-26,-17,1
-14,-9,-11,-13,0,30,23,-1
14,4,2,-6,-17,29,12,7
-4,-23,-35,-4,-7,-4,9,-8
-16,-15,-11,4,-16,-54,-44,-20
34,15,-6,-13,17,63,44,29
2,-15,20,10,24,1,2,1
9,34,9,-9,-25,-11,-1,0
-1,10,6,22,22,10,12,16
-11,19,-17,-18,-26,-55,-43,-20
-12,-4,-56,-32,-23,15,2,-6
11,22,-33,24,23,1,9,9
-10,-4,36,6,-28,-4,-8,-7
-14,-22,-24,49,15,1,-15,-4
2,2,74,-64,-16,-9,8,-1
-24,-19,2,-13,16,-16,-28,-18
15,31,25,25,9,13,11,6
-11,-12,19,9,-47,-16,-3,-3
-4,-2,15,-12,10,-9,-2,-8
-11,-13,-21,-35,-24,-27,-22,-11
9,-1,-35,-64,-10,8,3,5
-3,4,35,62,7,8,16,-3
-1,-3,10,22,18,-6,-27,0
1,6,11,-2,1,29,30,9
5,-9,-78,-27,4,-12,-11,2
-11,-9,6,-69,-2,20,2,-3
1,0,21,40,-2,-5,9,-1
0,1,14,23,-2,-3,-11,0
-11,-6,-6,28,12,9,4,-11
9,20,56,-49,-17,-24,-13,3
-8,-21,-83,-11,1,8,10,0
12,12,18,-6,4,1,-2,4
-7,-19,-38,-15,1,6,2,-4
2,6,35,35,5,-12,-6,0
2,-1,-26,-2,23,8,3,2
-11,-12,49,36,-23,-12,-10,-10
5,-5,-29,-57,8,9,8,8
0,-5,-7,66,15,2,-2,-1
2,12,56,-48,-18,-15,-3,-1
-8,4,6,-23,-17,-1,-11,-5
