-1,-1,-4,-3,-6,-5,-2,-1
-1,-1,7,1,2,3,2,-1
-3,0,2,15,1,-4,-2,-2
-1,1,1,-18,-2,0,0,0
-1,-3,-6,12,1,-1,0,0
1,0,-3,31,3,-1,0,2
-1,-2,-8,-56,-14,-2,-3,0
-2,-1,-2,-9,-4,0,0,0
0,2,-6,-35,-9,0,1,0
-2,-3,-9,26,7,-1,-1,-3
-2,-4,-3,24,1,-1,-1,-2
1,2,13,27,7,2,-2,1
2,-1,-30,-34,-9,-1,-1,0
-4,-3,-1,-36,-3,-10,-8,-3
-1,0,8,-2,2,17,9,0
1,0,-19,9,5,2,-2,-2
1,0,-1,-19,2,-1,-3,0
1,2,-3,6,0,-2,1,-2
-1,-4,8,21,-3,-5,-6,-1
-1,-1,14,12,-6,-6,0,-2
-3,0,5,-23,-1,1,0,-2
-1,-1,-7,-4,-5,0,-1,-1
-1,0,-3,0,-2,-4,-1,-2
1,-1,-2,3,-1,2,-1,-1
0,-3,2,-7,-2,-4,-2,0
-1,0,3,21,4,0,2,0
0,1,4,20,6,0,1,1
0,0,1,-13,-9,-2,0,0
-2,-3,1,14,0,0,-5,-3
-1,0,-9,-45,-6,-6,-5,-2
-1,-1,-7,13,4,13,9,2
-2,-4,-12,-33,-3,-2,0,-3
-2,1,21,18,-1,-4,0,-1
0,-1,-5,39,3,0,-1,1
1,3,10,-3,-5,-7,-4,-1
-4,-2,-4,-19,-1,1,-1,-1
1,-3,-8,-34,-7,-1,-1,-3
-1,0,13,41,4,0,0,-1
1,0,1,-15,-3,-4,-2,-3
-2,1,-9,0,-2,-3,0,-1
-2,-3,-15,-11,4,-2,-1,0
0,0,14,38,1,2,1,0
-1,-3,-10,-29,4,-4,-3,-2
-1,-4,2,6,-3,-4,0,-1
-2,-2,1,-9,-1,-2,-3,-3
1,0,-6,-2,-4,-4,0,-2
-2,-2,-6,-26,1,0,-2,-1
-1,-1,-7,7,-1,1,-1,-1
-1,-2,-6,-20,-4,-1,-3,1
0,-1,14,25,2,-2,-3,-3
-2,0,-19,-13,-2,-2,-5,-3
-1,-2,-1,-23,-4,0,1,-1
-2,-5,-15,-4,1,1,1,-1
-1,3,4,-21,-5,1,1,0
0,1,9,35,-1,-2,0,0
0,-2,9,-4,1,0,-1,-1
-1,-4,-10,5,-5,-1,0,-2
0,-3,-3,18,-3,0,0,-1
-2,-2,-3,-2,-3,-4,-5,-2
0,1,12,6,6,-3,-4,0
-1,1,-2,-3,-7,-2,2,0
-2,-3,-2,-5,0,0,1,0
-2,-1,-14,-6,5,-3,-3,-4
0,2,-5,18,-2,-2,-3,-1
0,1,4,-5,0,1,-4,-2
-1,-3,-11,-21,-8,1,-4,-1
-1,-1,33,10,7,-7,-3,-3
-2,-5,-10,32,3,3,2,-3
0,2,-3,-33,-2,1,1,0
-2,0,10,24,5,-1,-4,1
-1,-4,-4,-46,-11,-4,1,2
-3,1,-11,3,4,3,-1,-1
0,0,6,22,-3,-1,0,-1
-2,-1,-1,-19,-2,-1,1,0
-2,-3,-5,32,3,-2,-1,0
0,0,-4,-57,-7,-1,-2,1
-2,1,19,54,2,0,-2,0
0,-2,-16,-39,2,2,-1,-1
-2,-2,-11,20,-2,0,-1,-2
-3,-2,3,5,0,-2,-2,-2
2,0,2,-9,1,-2,-2,-1
0,1,17,29,-2,-1,-1,-1
-1,-3,-13,-36,-7,-1,-2,-1
2,-1,-2,-2,-1,-5,-3,1
-2,-5,-22,-21,-3,-1,0,-2
-2,-1,6,7,1,0,2,-1
2,1,3,17,-1,0,-1,-3
-2,-2,10,7,2,-5,-4,-2
-1,-1,-3,-22,-5,-3,0,0
-1,2,3,41,12,3,2,-2
0,-1,-7,-34,-11,-2,0,1
-2,-2,0,-5,-6,0,2,-3
1,3,2,-7,2,-3,-4,-1
1,-1,15,-31,-8,0,-6,-1
-2,-4,-38,56,2,0,-1,0
-1,-5,-55,38,16,4,-5,0
-1,8,28,-13,-12,-2,2,-2
-2,-12,-39,-37,1,-3,0,-3
-2,-2,34,-20,-9,-2,-4,-2
0,4,3,-1,-3,2,3,-1
-2,-1,-40,9,-4,-13,-12,-4
-3,-3,-4,-36,0,10,2,0
-1,-4,9,22,-1,0,1,-1
6,2,46,19,-2,5,12,13
-4,-6,-61,19,15,-1,-4,-12
2,25,82,-14,-4,-6,-4,-3
-7,-30,-47,-49,-11,-18,-15,-4
3,14,43,11,2,20,10,4
-14,-13,-26,-32,-2,11,8,-31
7,4,3,41,4,1,0,38
2,12,49,105,10,1,6,-9
-7,-8,-39,-21,11,-15,-2,-2
5,-3,25,-55,-25,1,-9,-13
-34,-20,-87,-72,-16,-3,-3,-5
24,10,39,79,20,0,-4,-3
3,-9,-40,-47,-30,-10,-7,-6
-1,2,2,-38,8,-13,1,24
-7,4,79,83,18,-1,-8,-30
23,11,-26,-95,-14,14,-1,-6
-21,0,-8,15,25,20,3,13
14,17,111,64,27,15,14,-4
4,-31,-112,-90,-46,-25,-4,-8
-32,-8,58,48,3,-19,-3,14
35,19,42,35,16,18,-7,-28
-9,-23,-66,-44,-3,43,24,-24
1,10,28,77,14,4,10,54
6,12,38,-74,-13,-19,-13,-35
-11,-9,28,27,-12,-35,-24,-11
6,11,-3,51,11,-4,-12,28
3,-4,-37,54,8,-1,0,-34
-7,-2,-34,-41,-15,5,9,19
-4,-3,-10,86,20,3,4,2
-2,11,86,-50,-17,-16,-12,9
-7,15,-4,-70,-8,16,8,-3
1,25,11,-37,11,6,6,11
-6,-22,24,-34,-3,5,3,0
-9,-11,-90,36,-15,-21,-11,-15
-12,-48,-45,-70,-14,-18,-16,-6
-1,2,48,38,-3,-1,-11,2
3,10,8,-53,-6,-5,3,1
-7,-1,54,19,10,-11,-6,-12
1,-3,48,-87,-31,-11,13,35
6,13,-10,-2,-1,14,-19,-12
-3,-10,-13,-62,6,5,5,-5
-7,-40,-84,-50,-22,-20,-8,9
-17,10,67,95,12,-10,-8,-52
19,1,2,-13,15,13,13,29
5,-3,2,86,30,0,-3,22
5,3,-36,19,-11,3,-4,3
1,-2,-8,107,19,-2,-4,-26
-15,-28,-74,-33,-26,-3,2,-13
-3,-7,63,67,-6,-8,-7,3
19,37,15,-70,11,12,7,22
-3,-29,-51,74,0,-1,-5,-3
-17,-20,2,-12,12,-12,6,-1
-6,30,75,-23,-36,-4,-10,-8
16,-5,-37,-54,29,20,9,20
21,28,96,14,-9,1,-2,2
3,33,94,70,30,-7,6,10
-44,-41,-128,-80,-4,-8,-9,-39
15,-16,45,112,-12,-1,8,13
2,26,2,-6,36,11,5,12
-10,-39,-72,-41,-54,-2,-2,9
1,15,91,9,-10,-6,3,-14
-11,-1,-17,45,10,-7,-9,-11
15,20,1,34,30,6,4,14
-30,-38,-35,-53,-38,-1,6,-37
25,33,-26,-116,-43,-9,-3,18
-6,17,69,13,30,7,0,5
8,-10,9,-40,-24,8,5,-3
-2,-16,-63,-23,17,4,-2,-18
-2,4,-57,-73,-52,1,3,14
-3,2,127,20,36,-3,0,-3
-14,-20,-51,-68,-39,-11,1,-15
23,38,-34,15,31,28,8,31
-30,-8,85,27,9,15,18,-33
8,-5,-106,-57,-11,-6,-24,23
13,2,-56,-28,19,17,3,-24
-27,2,74,22,-41,-26,-16,24
10,-4,-34,-68,28,3,7,-6
-14,11,92,89,3,-14,0,-24
3,-41,-75,-84,-42,-1,1,30
-5,5,-16,-46,-9,-12,-11,-40
4,21,-26,70,50,-5,-5,7
-4,9,17,81,-41,-10,-7,-20
11,24,88,61,21,-10,-9,52
8,31,-40,99,29,16,14,-25
7,-20,80,85,-20,1,0,14
-6,-6,1,-44,-23,-4,2,3
-10,-8,64,-66,-13,-3,-5,-14
20,26,6,127,84,21,11,18
-4,-7,-93,-107,-29,-15,-8,-19
-16,-30,-102,68,-7,11,2,-35
9,-15,-15,-6,5,12,8,37
8,-29,-26,-101,-59,-49,-30,-16
6,5,-48,9,16,54,2,59
1,-52,57,-32,18,-5,3,-4
1,83,90,111,26,-8,-8,-33
2,-12,-58,43,41,5,11,17
7,6,53,-45,2,-6,-5,-12
-2,-7,-46,-82,-31,-2,7,5
11,-2,-80,69,39,5,1,7
-16,5,127,-56,-15,-9,-9,-19
-9,0,-79,29,4,-9,-9,-65
15,-7,32,-42,16,7,11,87
2,16,55,-58,-11,1,2,-13
-12,1,-11,100,19,10,7,5
10,2,49,-87,-26,-35,-35,-24
-14,18,-72,-19,-9,18,21,13
-31,-25,2,-13,9,-6,-6,-25
41,14,50,43,3,16,-5,31
-3,11,26,-60,-1,-7,11,20
15,-20,35,-13,2,-10,-13,-39
-57,-22,-31,6,-8,-3,-11,10
5,-17,-82,-5,-7,18,20,0
18,4,33,-16,-15,-5,14,41
0,51,-24,-4,-24,-2,0,-8
17,3,-1,81,23,-4,6,-7
-30,-44,-81,-128,-1,0,-6,-24
2,-18,36,122,32,11,5,26
-4,9,-87,-90,-14,-1,-2,-14
16,14,-50,35,-13,-5,-14,-7
-19,-21,60,63,-1,-3,-4,2
-13,23,71,6,0,-2,-2,-73
22,30,127,124,40,2,14,43
12,17,91,-31,-48,-4,-4,-3
10,46,105,50,46,7,-1,-12
-26,-70,-36,-30,-31,-25,-15,13
25,-9,-36,50,-11,-8,-9,-17
-21,-23,-81,-78,-15,6,7,23
53,54,70,-4,-15,5,6,2
-17,-28,-94,116,24,-1,-3,-5
-28,-8,0,-31,13,-8,-11,-57
-6,-57,-42,-23,-13,-8,-4,25
19,46,37,-88,-20,2,6,8
4,-27,-124,-16,0,7,5,13
-11,8,-104,-80,-24,2,1,-13
8,-4,-33,29,2,-17,-16,1
-31,-25,-21,-61,-18,11,13,5
23,37,122,-10,-21,-11,-8,10
-22,-56,-74,-18,0,-9,-13,-6
-5,18,25,-23,-2,-1,-2,-29
-19,-24,30,-8,-11,-16,-12,-9
8,5,-34,72,-25,-8,12,41
-8,-60,-28,-45,0,1,-15,-21
-4,-1,-48,109,12,2,1,-3
-20,-30,-106,-12,-1,-15,-14,-19
-10,-8,18,30,23,13,13,10
19,52,46,-28,-16,-3,-4,-10
8,-8,3,27,4,7,9,31
-26,-36,1,14,-16,-17,-16,-38
-1,10,61,107,32,8,-1,-20
3,44,118,99,11,3,5,26
19,-17,-48,-109,-11,-5,1,-1
4,13,40,122,24,9,9,10
2,-21,-69,-120,-45,-2,-12,6
-30,-46,27,-14,-41,-25,-20,-31
-11,26,82,79,21,-16,-6,-50
34,28,53,-64,13,17,-7,42
-10,-36,-68,-88,-19,-2,-4,-28
5,25,63,70,18,-1,2,27
-4,0,-31,-110,11,12,6,-26
9,16,-3,57,-18,5,-4,12
26,57,44,80,52,20,14,48
8,-4,-55,-22,-28,-6,-4,-23
-20,29,122,-49,30,15,10,10
-4,-12,-8,-43,-7,3,9,-3
1,21,42,51,3,-9,-8,-16
4,21,52,75,27,7,11,17
2,13,6,53,-25,0,0,-9
-5,16,-5,55,39,12,9,-37
9,-15,-90,43,-5,-18,-10,45
-9,-38,51,16,5,-1,-3,-12
11,-9,-56,-84,-25,-7,0,39
-24,19,-32,61,24,15,-6,-81
2,-13,55,-120,-27,-2,0,5
2,8,-14,79,17,19,2,18
-1,-22,-69,50,12,9,3,-15
18,3,-62,21,-51,-35,-9,2
-30,16,13,-9,-22,-13,-5,-16
-10,-39,-7,-14,-4,3,4,3
-5,-53,-46,-26,-3,-7,-18,-11
7,-9,-46,58,-16,-13,3,18
-26,-34,-35,11,22,10,-8,-33
20,-13,-40,47,-27,-19,-8,47
8,36,88,101,23,1,7,-3
-3,-14,12,-95,-52,-6,-5,24
16,43,36,-2,34,17,14,1
-15,9,47,61,37,18,6,-15
-2,-11,-40,-41,-35,-11,-4,-11
-5,-55,-74,-98,5,-2,-2,32
-20,-14,-36,-4,-53,-22,-11,-53
20,82,56,-30,0,-6,-7,6
9,37,60,36,20,12,10,-6
7,-5,-30,28,39,4,-3,24
4,-4,85,41,14,8,-1,-11
4,5,-102,-55,-4,-2,6,-21
24,-30,20,84,6,-6,1,32
-3,25,70,-98,-36,0,0,3
-9,-23,-51,23,41,-8,-3,1
-26,-30,-4,79,-15,-14,-7,13
-4,43,93,-41,-2,5,-9,-24
-3,-15,1,26,-17,-13,-4,0
20,36,119,34,14,10,10,21
-17,-8,-49,7,-8,-24,-6,-27
15,1,-37,-25,14,27,7,30
-12,-17,-45,-22,21,4,0,6
-27,-42,-87,15,-21,-13,-6,-12
2,-3,-39,-49,-1,-1,-1,-13
-7,-2,-5,-60,-49,-9,1,2
18,45,87,-55,-7,-7,-7,-6
2,-19,-71,-35,3,-1,-1,7
0,-23,-26,6,3,9,5,2
-4,16,21,-90,-3,-6,-8,-10
-14,-4,25,50,8,-6,-3,5
7,6,25,20,-15,-4,-2,-13
-7,-8,38,-65,5,-1,-3,19
-18,-41,-82,24,-22,-15,-12,-29
-11,-18,-20,24,3,-4,1,-7
8,21,48,0,10,7,3,-21
9,3,46,-56,2,5,8,51
13,-4,-7,112,36,-4,-11,7
8,3,19,-48,3,24,14,23
-7,-24,-53,-26,-29,-5,-3,-12
16,29,-44,-58,-7,8,4,-5
-19,-39,-91,81,0,-8,0,-18
0,-4,6,41,-6,-9,-4,-1
8,12,-28,-39,-3,6,-1,9
6,12,3,-37,7,2,1,-18
-17,-19,-33,-54,16,12,4,-5
5,-14,65,-30,-48,-13,-3,12
-1,26,32,-8,11,1,-5,-29
-3,7,22,53,3,-2,3,20
6,15,2,-60,0,11,10,12
2,20,65,-2,-3,0,-1,-2
-3,-12,-77,60,8,2,5,-10
0,16,73,-70,-21,-1,-6,18
-2,-13,-19,9,16,1,0,2
-17,-15,-33,2,-2,-14,-9,-17
10,10,38,73,1,-10,4,36
-14,-5,-25,-11,15,-4,-25,-66
-40,-37,5,-1,-39,4,9,-11
51,10,-43,8,14,6,6,54
-1,-4,8,4,1,-3,-16,-11
-13,-40,-38,2,0,0,2,5
1,32,75,14,-18,-15,-9,-22
-9,6,-59,39,37,3,0,-29
3,3,55,-90,-38,1,6,27
4,4,-47,-13,19,16,12,7
4,6,1,-49,-32,-9,-8,-23
-15,-11,-7,17,4,1,-7,-5
9,7,-15,0,9,0,4,14
-7,-11,-10,33,5,-1,2,-7
14,14,4,-40,-5,-7,-3,11
-18,-15,-47,20,11,-8,1,-2
3,39,52,29,-11,17,8,-19
-14,-13,31,-20,-20,-9,-6,-22
8,-5,33,45,26,5,1,28
0,-1,-16,-10,-9,-3,-2,-19
3,-3,-4,-2,7,-7,-5,8
6,14,4,5,-4,2,6,-3
7,17,-14,22,7,-2,-1,2
-18,-20,30,28,30,0,0,4
0,10,12,-51,-37,-13,-13,2
10,-8,53,7,-7,-7,-13,0
1,-16,-73,-13,4,7,8,7
0,14,3,-5,-3,1,2,-7
-10,-24,-19,-52,10,-2,-3,5
1,-1,-19,16,-4,-4,2,-6
6,28,40,-18,13,2,-2,6
-8,-13,21,48,6,-3,-3,-13
2,-3,11,-24,21,15,9,3
-10,-6,-14,-13,-10,0,-2,-1
4,-7,47,32,16,1,-2,-1
1,4,-64,-60,-15,2,-1,1
-9,-19,35,8,9,-9,-7,-8
2,9,-14,93,-2,-5,-2,3
-2,-1,17,-22,-21,-5,-1,0
-2,-4,-2,-49,-7,4,1,-3
1,-2,-25,16,-2,-2,0,4
2,6,7,4,15,5,1,-1
-7,-5,-20,-7,-7,-8,-6,-6
4,1,9,42,-7,-2,-1,0
-4,-4,-23,14,8,-1,-1,-6
1,2,1,-24,-3,0,-1,2
0,4,5,-1,-1,-1,-2,-4
-4,0,-4,-44,-30,-13,-5,-4
-1,-5,-8,35,31,7,2,3
-1,1,7,-3,-12,-1,2,-1
3,2,15,-10,-4,0,2,2
-1,-4,-1,7,5,3,-1,-4
-3,-7,-13,12,-15,-11,-4,-3
3,3,-1,-5,2,4,-1,1
-2,1,-7,-5,4,1,-3,-3
-4,-4,-10,-20,-24,-13,-7,-1
0,-2,-10,15,-11,-1,2,-1
3,3,6,-5,15,2,4,1
0,-3,-8,-10,-14,-6,-3,-2
3,2,9,24,45,15,4,1
-1,0,7,1,-25,-7,-5,-2
-2,-1,-8,-16,14,-1,-1,-2
-4,-4,11,26,18,2,-3,-3
-3,-5,-39,-12,-37,-8,-3,-3
-1,-2,-16,-21,11,4,2,0
