-1,0,2,7,-1,1,0,0
-1,2,-14,-8,-2,-4,-3,0
0,1,2,-1,0,-3,-2,-1
1,1,15,11,4,-1,-2,-1
-1,-4,-12,-5,2,5,2,-1
-2,-1,26,10,0,-1,0,-3
1,1,5,0,-6,-4,0,1
-2,0,-8,-2,-3,-6,-1,-1
-1,-2,4,-9,-5,-3,-2,0
-2,-4,12,17,5,0,1,-1
0,2,-16,-7,1,0,0,-1
-2,-6,-2,-1,-3,0,-1,-1
-1,0,2,1,2,0,-1,-3
0,-2,-5,1,-6,-1,-1,-2
0,2,9,4,-1,0,-2,-2
-1,2,9,-9,2,1,0,-1
-1,-4,-13,3,-3,-4,-3,-1
-1,-1,0,4,-3,-4,-4,-1
-2,-3,-9,-15,-1,-2,0,-2
0,-1,16,13,-2,2,-1,1
-2,0,3,0,-1,1,0,-1
-2,-1,-13,-7,-1,1,-2,-1
-2,-2,4,5,1,-1,-2,0
-1,-4,-7,2,1,-1,1,0
-2,-3,1,-6,-3,-2,-2,0
-1,2,-11,-5,5,1,0,1
-2,-1,10,10,-2,0,1,-2
-1,1,-8,-2,-3,-2,-2,-2
0,4,21,17,6,-3,-1,-2
0,4,12,-11,-2,-1,-2,0
-2,-8,-26,-29,-6,-4,-2,-1
-2,-1,0,-3,1,0,1,-1
1,-1,2,-8,-2,0,1,-1
0,-5,-3,-2,0,-3,-2,-2
-2,1,16,25,2,2,-2,-1
-1,-1,-8,-19,-5,-2,-5,-1
-1,-1,-12,-16,-6,-6,-2,0
0,2,8,2,0,3,1,-3
-2,-1,-5,-6,1,-2,-2,-1
-1,0,9,15,5,2,3,-2
-1,-3,-11,-9,-2,-2,-1,0
-2,-2,-3,-5,-4,-3,-3,-2
-2,-1,9,14,3,2,1,0
-2,2,7,-2,1,-3,-3,0
-2,1,-1,-3,2,2,-2,-1
-1,-1,-2,4,-7,-4,-3,-1
1,1,14,-2,-2,0,0,0
0,-3,-27,-26,-5,-2,3,0
-2,1,13,33,5,-1,-2,-2
0,-5,3,-2,1,0,-1,-1
-2,-2,0,6,1,-3,-3,-3
1,1,-17,-28,-4,0,-1,0
-1,-4,-9,0,-1,1,-1,-1
-2,-2,-3,-3,-1,-2,-2,-2
1,2,-1,2,-7,-3,-1,-1
-3,-4,2,5,-4,-2,-1,0
-3,0,12,9,-3,1,0,-1
-1,-1,-18,20,4,2,0,0
-1,-2,-17,-26,-3,-4,-3,0
1,1,14,10,0,11,4,0
-1,-1,-4,-13,0,-1,-2,0
0,-2,-1,4,-8,-6,-2,0
-1,-1,23,45,4,-1,-2,-1
2,-2,-13,-36,-1,-3,-3,0
1,1,11,12,2,0,-2,0
-2,-4,-15,-10,-3,-2,-1,-2
0,0,-14,-55,-9,-4,-1,-3
1,6,44,75,9,-1,-2,-2
-5,-10,-10,-26,-10,-4,-4,-2
-2,-1,7,-2,4,3,0,-1
-2,-2,-9,1,3,1,-1,-3
-1,-1,6,0,-6,-4,0,0
1,2,-10,-10,-1,-1,2,-1
-1,0,0,8,-4,-3,-3,1
0,0,-3,-10,4,1,1,2
-1,2,-6,-4,0,-2,0,-1
-1,-2,-6,6,-2,1,0,-1
0,-2,0,-9,-2,-1,-2,0
0,0,-4,3,-1,-3,-4,-3
-1,-2,-5,3,-1,1,-2,-2
-1,2,-5,0,-2,-5,-2,-1
-1,1,6,-3,-3,-1,-1,0
-1,0,-7,8,4,0,-2,-1
-1,-2,9,9,5,-2,-2,-1
-1,-2,-7,-26,-8,0,0,-1
-1,3,-2,13,3,2,1,0
0,1,9,14,-6,0,-1,-1
0,2,-3,1,6,-2,-1,0
0,0,-2,0,-1,-1,0,-2
1,-3,0,-13,-1,-4,-2,-1
-2,-4,4,5,-1,0,-1,0
-1,-2,-14,-9,-4,-1,-1,-2
-1,1,7,16,3,-2,-1,1
-1,2,0,-4,0,1,0,0
-1,-3,-14,-12,-4,-2,-2,-2
-2,-2,8,3,-3,0,-4,-3
-2,0,-11,3,0,-1,-1,-2
-1,-2,-3,-1,-1,2,0,-1
-1,-1,-4,-4,-2,-3,0,-2
-1,-2,-9,-15,-3,-7,-5,0
-1,0,-6,-16,4,13,6,0
-1,1,26,44,0,-3,-2,-2
1,-1,-6,-18,-5,-1,-1,-1
-5,-2,6,22,4,0,0,-2
1,2,1,-32,-7,-5,-3,-2
-4,-2,-18,-2,3,0,-2,-3
-3,-1,6,5,1,1,0,-1
-1,-1,-5,-2,-6,-1,0,-1
-2,-1,37,52,2,-3,-4,-2
-3,-1,-13,-25,4,-1,-2,-3
3,-1,14,16,3,-1,0,1
-2,-3,-9,-16,-6,-4,1,1
1,-2,0,12,2,-2,-1,-1
-1,-2,9,-8,-6,-3,0,0
-3,-2,-35,-10,6,4,1,0
-1,0,5,-2,-2,1,1,-2
-1,-3,-17,-8,0,-2,-1,0
0,-1,0,-1,1,0,-3,-1
0,1,-1,-7,-3,-3,-3,0
0,-1,-5,-3,-2,-1,-4,0
0,1,-3,-1,-1,-3,-3,-2
0,2,6,-8,-1,-1,0,1
-2,0,5,13,-3,-4,-1,-3
-1,0,4,1,2,2,2,-1
-5,-3,-18,-19,-4,-1,-1,-2
-4,-3,6,0,-3,-3,0,-1
0,0,3,11,2,4,1,1
-1,-3,-14,-23,-3,-3,-1,-2
1,0,15,13,9,1,0,-1
0,-3,-20,-7,-2,0,1,-1
-2,0,-1,-5,-3,-1,-2,-3
-1,-2,-2,-6,0,1,-1,1
-1,1,-3,1,2,2,0,0
0,1,0,-4,-3,-3,0,-1
-2,-1,2,-4,2,-2,-1,-1
-2,-3,-1,1,-8,-3,-3,0
-1,-1,-7,-7,-4,-2,-2,0
0,-1,4,5,6,1,-2,0
0,0,-19,-11,-2,0,0,3
-2,1,18,22,4,1,0,-1
-1,-3,-16,-15,-4,-1,0,-1
-2,-1,1,11,-4,-2,-1,-3
0,1,-3,-20,-3,-1,-3,0
2,2,14,5,2,-1,2,-1
-1,-4,-19,-14,-5,-3,-1,0
-1,2,6,17,-1,1,0,-1
-3,-1,6,1,-10,-6,-3,-4
0,-2,-4,-1,8,1,1,0
-1,-1,5,7,0,-1,-1,-1
-4,-4,-8,-15,1,0,-1,-4
-10,-6,7,10,-12,-4,-3,-6
-1,-3,3,-16,-9,-6,-6,-4
15,5,-1,5,3,3,4,8
5,5,7,-2,-3,1,1,4
-1,-4,-3,-2,-1,0,-1,-2
-7,-2,-10,-1,-2,0,-2,-4
-5,-4,12,3,-2,-2,-4,-6
0,-1,-13,-6,0,0,-1,-1
-8,-12,4,-4,-3,1,1,-2
-3,7,-11,11,7,2,0,-3
6,6,-7,2,11,-1,0,1
-8,-8,-5,-12,-3,-1,-1,-3
4,-1,5,9,4,2,2,2
2,-3,-1,-10,-13,-6,-2,0
-1,5,-4,-8,4,-1,-1,0
8,7,0,0,-5,1,4,2
0,-2,-6,-2,1,-3,-1,1
-2,-3,6,5,0,-1,-3,-3
-11,-11,-2,0,1,-2,-5,-8
-2,9,12,-3,-11,-3,-5,-5
6,0,-2,4,8,1,1,4
2,-2,-30,-15,0,2,2,0
-5,-4,8,1,-8,-3,-3,-5
-5,-8,-8,-11,2,-1,-2,-2
1,6,16,11,-1,-1,-1,0
4,0,-11,-8,-2,-3,1,1
-4,-4,1,17,-1,-1,-1,0
-2,-2,27,15,-1,-1,-4,-1
0,-2,-26,-15,-1,-2,-2,-4
-1,-3,-8,-2,-4,3,-1,-2
0,1,2,-14,-5,-2,2,-1
0,-2,6,-8,2,-4,0,-3
-1,2,-16,13,-6,0,-1,-3
-4,-3,21,29,-4,-3,-3,-1
5,3,7,2,4,4,5,5
1,-2,-10,-14,0,-1,-1,1
-4,-1,19,1,2,-1,-4,-3
-6,-5,-17,-4,2,-1,-3,-3
0,3,0,-6,-5,-2,1,1
4,-4,-4,7,0,-5,-1,4
1,0,0,-15,-4,-1,1,-2
-6,-2,2,-7,3,-2,-4,-3
-2,0,5,11,-7,-1,-2,-3
-5,-7,-15,-5,-4,1,0,-2
5,16,10,-9,1,-2,2,0
3,-1,25,17,2,3,3,3
-14,-10,18,-4,12,-1,-5,-8
-6,-10,-46,-13,-11,-4,-4,-7
15,9,19,2,14,0,-1,8
1,14,28,-9,-1,3,9,5
1,5,-11,18,-4,-2,-2,4
-1,-10,6,5,4,0,-6,-6
-32,-10,-1,-30,-23,-23,-26,-35
7,-3,-49,15,6,11,4,-7
46,2,-5,-16,2,7,27,53
0,1,8,9,2,2,5,4
-22,-10,-21,0,15,9,8,7
-8,-14,11,4,-27,-6,-16,-19
4,0,-39,-19,-3,0,-11,-18
-4,6,14,4,2,-3,-1,-7
-51,-2,23,2,-19,-3,-7,-20
75,22,-15,-24,11,8,19,39
-10,-41,3,10,-5,-9,-5,3
-45,-14,9,-10,-8,-18,-10,-21
9,19,-17,-8,3,6,1,-11
69,29,20,39,43,25,36,62
-46,-21,-23,-12,-13,-11,-17,-17
108,87,25,-30,-7,-2,2,42
-89,-39,-36,-21,-9,-2,-12,-45
15,14,-1,57,20,-7,-17,-15
-55,8,43,-15,29,10,13,-11
-15,-56,-87,-20,-9,-8,-18,-21
82,14,31,72,6,24,22,31
46,36,8,-35,-4,-2,22,38
-18,52,11,57,-23,-9,-6,-5
-65,-55,-10,-19,-11,-13,-7,-23
43,-23,11,-11,3,8,-5,4
-126,-35,-14,-35,-23,-25,-30,-59
55,13,-23,29,0,16,-8,-9
44,10,7,-42,-99,-10,70,51
-11,16,0,69,81,20,-23,-16
4,-112,-56,-36,-30,-24,-19,48
37,36,45,21,70,2,-9,-1
-23,26,20,0,19,8,-38,-59
-34,-2,42,-30,-73,-23,32,34
-42,-24,-33,20,20,-1,-3,-51
25,33,36,-53,-1,-7,48,4
10,3,-11,90,27,42,-47,-20
44,-24,11,-29,-29,-29,-6,57
-12,17,-1,-6,1,20,5,10
-2,-60,-24,-32,-83,-44,-29,3
-14,15,36,9,16,-6,15,-20
-5,-25,-15,28,20,16,-8,-30
25,61,-11,-29,-103,-17,-24,5
-35,22,-17,-30,-9,21,101,-26
52,55,-5,42,98,24,-86,7
39,-53,-48,-36,-26,-24,8,105
-60,-4,38,29,16,1,65,10
21,-20,-31,-21,4,-9,-87,-50
-32,74,-5,-10,-71,-32,8,-35
23,-14,5,12,56,26,9,34
-32,17,62,4,12,0,8,-13
-38,-27,7,-21,-28,1,4,2
35,-33,-35,15,10,10,-13,-28
-61,4,-2,-42,-39,-17,8,-80
22,-20,49,5,-18,-2,-4,76
-14,3,-4,59,69,1,-76,-22
-13,-115,-19,-105,-116,-48,43,49
-27,55,62,78,46,26,-11,-22
8,97,49,69,91,32,-19,1
-50,70,-35,-32,-79,-24,-14,-51
92,-76,21,6,-12,-10,-28,37
75,-49,-42,-56,-25,3,-1,-24
-4,88,-41,-19,-40,-4,63,-37
12,81,-17,-115,-56,-39,-43,-15
-113,-27,20,97,17,36,61,72
-25,119,50,43,-13,17,-47,-37
117,-128,-10,33,71,32,50,41
-23,70,2,-50,-23,-19,-55,8
-16,48,71,-85,-3,-11,56,-16
-31,11,-59,85,9,-11,-63,-19
-60,8,18,-7,-5,8,-14,-9
-3,41,-69,-55,-23,8,11,-38
70,-83,-18,12,31,6,9,46
-89,11,4,-96,-4,-42,-26,-17
61,-74,-65,-71,-70,-9,42,-4
33,-57,17,127,86,40,-18,73
-53,77,90,26,36,23,10,-34
6,16,-63,-32,63,5,-13,-48
-9,-7,-5,-26,-35,-26,-27,25
-52,-91,48,-78,-38,15,40,-4
105,78,-49,56,63,26,-15,-1
37,89,21,-29,-49,-26,80,67
-83,6,42,27,101,26,-1,-68
27,-20,-43,88,-18,-33,-69,5
-12,10,35,-48,16,2,0,-2
19,49,-37,82,46,19,29,-11
-20,-51,-36,-74,-32,-18,-54,-46
46,65,35,31,22,-3,13,22
-93,-55,-33,-12,-37,-6,1,-40
73,31,-18,29,39,0,31,57
38,42,-12,-44,-80,-22,-18,9
-22,21,-8,75,93,51,67,-47
-45,2,-8,-58,-88,-49,-46,29
32,-53,37,-39,-8,2,-18,-19
-18,24,18,62,-3,27,84,-35
2,-19,-34,-6,27,-31,-77,47
-18,56,-24,65,-13,-2,16,-7
-26,-13,0,-5,1,-5,-29,-17
52,1,71,-7,14,18,27,20
-30,-91,-51,-19,-40,-19,-54,-53
-34,55,31,-48,31,6,28,44
48,-6,-11,-83,-128,-64,2,14
-7,45,27,105,108,34,-11,-11
-6,13,44,-73,-9,10,18,27
47,2,27,38,23,15,8,10
3,-5,-8,-99,-90,-14,37,0
-36,5,8,-57,-53,-26,-79,-34
-46,59,74,124,86,39,11,-6
86,45,-68,-63,-39,-8,40,37
-26,-111,28,-19,49,23,-54,28
8,68,-65,-9,-20,-1,-26,13
19,22,6,-23,-54,7,75,2
-63,-65,53,28,41,-7,-57,-63
-31,-2,-4,-2,-74,-4,26,-36
38,-78,5,58,41,-19,-56,-4
-2,-70,-15,-7,-2,12,27,-8
25,36,-37,8,-18,-12,16,81
-18,-42,19,-54,-29,-11,18,-14
-4,81,-14,4,34,2,-16,-5
-33,-28,-1,-75,-60,-16,35,-11
-2,-10,-21,44,55,17,-7,-31
32,73,44,19,46,30,3,7
-16,-13,-22,-45,-72,-24,-10,-17
28,-22,-27,-10,-67,-46,-7,36
-82,53,1,-16,34,17,0,-51
21,5,-15,39,31,11,6,23
-26,0,-97,-13,22,-4,-11,-21
54,55,19,28,19,-2,40,42
47,-110,-6,-19,-21,-26,-63,-14
-64,35,-9,17,10,21,32,-40
13,-51,34,-54,-92,-47,-44,21
23,16,47,42,33,37,38,22
-2,-71,-32,27,21,-13,7,16
0,-14,-25,-40,10,7,31,-12
-48,-9,5,-16,-63,-43,-47,-39
45,72,47,43,12,0,3,56
-38,-53,-4,-18,-6,14,-18,-14
-2,-42,1,-29,-30,-27,-13,-31
64,-29,18,-27,60,19,10,21
-1,-20,-18,53,57,16,51,33
27,125,-33,-110,-58,-19,0,-20
-41,-5,-3,101,61,17,-8,21
-28,45,-34,6,-19,-13,14,-33
1,-32,62,-19,33,-2,-77,-14
18,-16,-12,-3,-12,15,33,8
14,0,39,63,69,43,15,25
-91,-7,-22,-46,-32,-9,14,0
72,72,-6,-22,-23,-13,-14,0
-121,27,10,-72,-39,-20,-43,-128
81,-43,55,43,12,-23,-36,69
-14,-29,11,72,79,37,42,71
-41,-48,-78,-68,-42,-27,-1,-34
35,67,30,31,18,21,-17,8
-51,3,-43,-56,-8,-15,-21,-62
18,-10,-11,-112,-98,-31,-2,14
-27,-41,-9,110,108,63,49,8
61,59,56,39,25,0,-12,12
-28,-22,10,23,-9,15,1,-5
-13,-57,-83,-47,6,-28,-27,-17
-20,-25,0,9,-75,-21,-15,-38
-6,20,18,50,35,12,33,31
41,-50,-24,-24,-28,-13,10,16
-7,11,42,24,23,14,-17,-18
-8,14,34,-6,-1,19,8,-1
-46,-56,-27,-2,6,2,24,-7
70,42,-53,7,15,19,54,35
5,32,48,6,-41,1,-37,10
-7,-18,31,15,5,28,17,-9
5,-7,74,26,6,-12,-3,5
-44,9,-19,-82,-67,-25,-25,-40
0,-10,-9,54,-1,-12,20,-26
52,39,10,-2,27,4,14,42
6,-43,-53,-46,-54,-3,-5,14
-34,-7,-9,20,18,5,-11,-14
1,17,16,-21,5,3,-3,-6
-28,-46,-88,-65,-39,-27,-24,-23
13,-5,-7,20,-7,-1,4,-4
-9,15,1,-65,-25,-6,-32,-1
3,70,41,74,80,14,22,-23
12,-83,-32,-24,-29,-6,12,31
4,-21,-47,-7,-1,-10,13,8
-9,14,60,30,0,-29,-55,3
10,-6,37,-2,22,67,30,16
-10,8,33,-13,-17,-11,5,-16
1,-7,8,14,7,-19,-27,0
4,5,4,27,8,-12,24,0
-2,-42,30,0,-22,-17,-8,-6
-12,-18,3,29,11,3,-2,-13
-11,-23,-26,-3,-23,-57,-51,-11
9,57,-6,47,-11,20,11,11
6,-4,-12,-16,-10,17,13,5
-5,26,49,0,4,-8,-2,-9
-3,-5,-47,-25,-1,4,-13,-6
5,28,-4,57,15,45,55,13
3,21,-80,-14,13,-9,-5,8
-25,-27,-30,-11,-28,-14,-16,-17
16,21,35,-3,-8,-6,14,7
-7,4,49,56,30,28,1,-1
7,4,1,24,-20,-7,-7,1
-2,-1,-10,-26,-4,-14,-12,-2
14,32,108,32,-32,5,5,-1
-47,-96,-128,-125,-29,-64,-41,-31
