0,3,6,0,-6,-10,-5,-1
0,-7,-11,0,2,4,6,-1
-2,-7,4,-9,-10,-6,-3,-2
0,1,-14,-6,0,-2,-1,-1
0,6,10,0,0,-3,-2,-2
-1,-3,13,5,-4,-2,-1,0
-4,-12,-33,-2,-6,-7,-7,-3
6,17,25,6,1,4,6,2
-8,-15,-19,-13,-4,-5,-7,-5
-1,-1,-1,3,-3,-1,0,-1
-2,4,-13,-12,-2,-1,-4,-2
0,7,33,20,9,-2,-2,0
4,8,1,5,2,5,4,3
-4,-12,-12,-13,-19,-8,-2,-1
-6,-5,1,10,2,11,0,-2
3,4,-5,-4,-7,-5,-1,-3
1,-7,-8,-7,-3,3,3,0
1,0,-3,-7,7,-6,-8,-1
-3,-11,-17,0,-1,0,0,0
-4,-1,1,0,-6,-3,-1,-2
-4,-4,-2,0,2,3,-2,0
0,10,1,-10,-7,-1,2,0
-3,-16,-8,-9,-6,-10,-3,-3
1,6,9,19,14,4,2,0
-9,-22,-31,-9,-16,-5,0,-3
-4,3,0,10,23,1,-1,-1
7,7,6,-6,8,-3,-8,-1
4,-18,-10,-5,-35,1,5,6
5,16,16,1,13,1,-3,1
-4,2,1,-5,-16,0,-2,-2
-4,-1,8,7,3,-4,-3,-3
-1,1,-6,-4,4,-1,-3,-2
2,7,9,11,2,2,0,-1
0,-1,-1,2,-1,2,3,2
1,11,0,-4,-2,-9,-4,1
-9,-22,-24,-12,5,3,0,-7
2,3,13,3,-2,2,-4,1
-2,0,-8,-6,5,0,-1,-2
-5,-10,-8,2,-3,-5,-4,-1
3,6,-3,-16,-10,-12,-2,-1
-1,1,17,17,17,13,6,1
5,1,-2,-4,-10,-3,1,-2
-2,7,8,4,-2,-2,1,-1
-8,-6,17,11,3,-2,-4,-4
3,14,10,-4,-1,-6,-1,-2
-6,-15,-13,-5,-3,1,-4,-4
5,3,13,-9,-1,-5,0,2
-5,-7,-17,5,-1,11,-1,1
1,-1,32,16,5,-6,-5,-1
1,5,-20,-1,-7,-6,-1,0
-3,-6,-6,-14,8,10,0,-3
1,-1,-14,-3,-12,-6,-3,-2
-4,-5,-13,-3,14,2,1,-1
-4,4,22,9,15,3,0,-2
-3,-8,-20,-14,-14,-5,-4,-7
13,13,7,-5,4,-3,-7,10
2,-6,-16,-12,-10,-3,-5,0
-1,2,11,5,-2,-3,1,2
-7,-22,-15,6,5,1,-2,-1
-4,10,5,-7,2,0,4,-2
-2,-5,-7,-3,-7,-9,-3,-4
-1,-5,-6,-6,-1,3,-3,1
-2,-2,-2,5,-2,-2,-3,-2
-5,-12,-29,-4,6,2,0,-3
-5,-8,-1,-5,-22,-7,0,-1
4,10,18,-1,14,3,3,0
5,10,2,12,4,4,-1,0
-9,-17,-3,-1,0,-4,-3,-7
3,21,18,-2,-6,1,1,1
-6,-16,-22,-5,-8,-5,-4,-4
4,12,7,3,4,3,-1,5
-5,0,3,-9,-3,3,-3,-5
3,0,-3,1,17,1,-1,1
0,-7,-7,-4,-5,-3,-2,0
-5,7,7,4,2,-4,-1,-5
6,11,5,6,2,-1,2,1
-1,-22,-19,-9,-9,2,1,1
-8,12,15,8,0,-5,0,-4
2,-17,-30,-22,-7,-3,-8,2
2,-4,13,6,1,1,3,-1
-6,-2,-12,-3,-5,-5,-4,-6
2,-3,8,3,8,-2,-4,-2
-4,-1,-9,-3,-9,0,3,-2
1,0,7,-6,-11,-6,-2,0
-5,-1,-4,9,4,0,-1,-4
8,5,5,11,8,4,3,6
-10,-5,-4,-12,4,-4,-6,-6
4,-3,-3,6,12,5,-1,2
3,-3,1,4,-7,-4,4,7
-11,-23,-25,-5,8,11,1,-5
5,6,10,13,3,-2,1,-2
0,-2,-8,-5,-4,-4,0,-1
-5,8,9,6,3,-5,-7,-7
-3,-5,-8,-29,-14,-2,0,3
17,4,18,32,11,2,6,11
-15,-5,-2,-16,-6,-2,-9,-9
1,8,7,-2,5,14,5,2
4,10,5,-6,-7,-4,0,3
0,-2,-12,1,-10,-6,-5,-6
-1,5,2,2,6,3,3,3
-11,-10,-13,-3,3,-1,-2,-3
-11,1,1,-39,-16,-7,-7,-12
12,4,25,65,9,6,5,10
5,6,9,21,7,0,-1,1
1,-4,2,0,-5,-3,-3,-3
-25,-24,-22,-16,-2,-4,-10,-18
-19,2,-13,-41,-18,-8,-5,-17
38,-19,-9,11,-2,0,6,26
-8,8,-5,-4,9,-2,-6,-11
20,16,19,28,-3,-1,6,11
-42,-7,-13,-35,-3,-8,-16,-16
-5,-4,-22,-19,-14,0,-1,-7
11,-4,2,-4,8,-7,3,4
-11,6,-1,20,-8,-1,-13,-5
-5,28,13,-5,0,10,17,3
2,-23,5,-8,-6,-1,6,8
-3,-18,-10,-5,-10,-4,2,7
16,41,18,17,7,-4,-13,-6
13,-36,-16,-10,-2,-1,1,8
-27,-10,1,-6,-1,-2,-7,-10
1,-2,9,-16,-9,0,3,-3
-9,0,-34,-15,-7,-10,-6,-9
17,6,5,-10,14,3,-1,14
-3,30,54,37,-26,-9,0,-7
0,13,-17,17,17,18,13,-2
-18,-52,21,3,10,4,8,1
20,4,-55,23,6,1,-8,0
-34,-27,-13,-43,-12,-12,-22,-30
11,-13,-25,-27,-14,-11,-8,-2
9,20,18,4,6,4,7,14
9,-4,9,1,-15,-6,20,26
-7,18,-2,2,29,0,0,-6
-6,10,-5,26,15,7,-10,-12
5,-20,-32,-48,-10,-2,0,9
-5,8,48,27,-33,-5,-3,-4
-5,31,13,25,44,8,7,-1
-20,-9,2,-8,-18,0,2,-13
-22,-7,11,38,60,21,-15,0
14,5,-38,-40,-40,-23,-3,-3
-6,31,-2,-41,-22,-6,-39,-10
14,-11,32,-4,-22,-9,44,25
-37,-66,-21,27,50,10,-27,-30
9,55,49,21,-42,-10,-1,27
21,13,41,56,74,29,30,18
-19,18,61,-27,-23,-24,-24,-14
37,78,-14,-16,-35,6,32,12
-31,-118,-42,-21,13,7,-1,-22
-4,34,-29,-10,-29,-13,-24,-13
21,40,70,19,-5,-3,-2,2
-4,0,9,-5,-17,-4,15,-13
5,18,-10,-8,27,3,0,3
-35,-59,-113,-17,-40,-13,-21,-2
23,43,58,32,31,13,9,-4
5,39,15,10,-9,6,-20,-7
23,-16,-10,-5,6,-13,10,25
12,21,67,12,25,7,10,-15
-36,-46,-64,-98,-83,-10,0,12
17,8,80,102,90,24,13,5
-4,7,9,-17,-12,-10,-18,-28
-8,-11,21,-4,-39,-7,-4,-3
63,-26,-57,10,26,14,-1,19
-12,-65,-76,-49,-39,-11,9,-2
-57,-17,28,11,13,7,-18,-25
67,55,-10,14,23,12,30,33
-8,38,78,22,12,2,-12,19
-20,-70,-110,-30,-42,-19,6,-5
-4,31,-41,12,20,1,-34,-23
-8,-65,-18,22,7,18,37,9
-61,-17,-16,8,9,-8,-15,-32
60,22,-5,-32,-20,-1,45,51
-3,-4,21,-48,-46,-36,-43,-44
2,58,116,69,65,23,20,1
6,-44,-90,-12,14,-4,-7,7
8,9,-33,8,-7,4,-1,0
5,86,81,20,29,12,5,4
37,47,12,-44,-38,-27,-10,14
-33,-65,-34,3,-11,-6,-17,-9
-40,-3,47,26,-5,-4,-20,-28
-11,-53,-82,-65,-27,-8,2,-5
-12,-51,-62,-29,-6,-5,-13,9
11,55,42,23,18,10,33,3
22,39,44,-11,-17,-19,-42,10
6,16,5,58,41,28,15,-6
-33,-72,-105,-25,-35,-24,-14,-31
-19,-17,-84,-42,-3,-8,9,3
3,44,61,6,-72,-11,-11,-11
-18,-52,13,29,42,25,15,16
18,107,91,-3,-1,-11,-15,0
17,26,38,64,32,5,-5,-4
-44,-66,-85,-44,-24,-18,-30,-25
16,73,68,-45,-37,-5,42,17
-18,-76,-113,53,12,4,7,-1
6,9,69,-34,-5,-5,-5,2
20,91,110,53,44,10,3,3
4,-45,-24,19,-15,-4,28,11
-38,-86,-115,-63,-21,-7,-23,-18
2,39,-5,61,-12,-13,-37,-21
5,36,0,-55,-7,9,24,4
40,75,78,48,13,5,2,18
-28,-85,-38,-55,-26,-16,-7,0
22,74,-5,-34,-4,13,31,14
9,23,30,92,37,2,-7,-1
-51,-94,-24,-100,-37,-18,-28,-35
50,32,89,6,11,13,26,30
-38,-48,-120,-45,-39,-9,-18,-29
2,-22,-59,22,25,11,39,17
24,65,-63,41,22,-1,-4,27
-13,-5,34,-1,7,-5,-11,-9
-3,52,50,13,-20,-2,-19,-11
-7,22,27,-31,-28,-27,-31,-22
18,-19,-66,-2,17,2,-10,-13
-17,-44,-9,62,21,-5,10,4
10,102,109,-27,1,8,-4,-2
-5,-1,52,-37,-14,-8,-2,-6
-21,41,2,35,14,8,7,-6
-15,-69,-77,-44,-11,1,-17,-16
9,-18,-39,11,31,11,14,-1
20,51,25,-73,-44,-14,6,30
-12,-59,-65,54,-4,9,-6,-3
7,40,12,16,21,4,-4,-3
-16,-80,-113,0,-9,-19,-21,-15
-23,-77,-97,-24,13,19,22,5
-19,-58,-116,-75,-56,-22,4,15
59,38,63,54,39,29,3,9
-9,-9,-57,-33,-19,-5,-21,-9
-18,-128,-66,25,3,-3,6,-16
-25,22,-6,-3,12,-3,-21,-3
1,50,38,-38,-29,-7,-8,13
6,-24,22,-2,3,-1,6,6
-17,45,77,7,2,-5,-14,-4
21,-20,-20,-2,10,5,-3,-7
3,67,119,67,16,9,23,8
7,-21,-30,-2,-12,-14,1,17
-7,-1,-88,-5,-5,2,-11,-9
-8,-43,-3,-28,34,11,34,1
27,-1,-70,-52,-99,-35,-32,-14
-35,-108,-39,70,51,15,6,-4
0,-4,-35,-5,-13,-9,-14,-8
-8,19,-9,7,-5,4,3,-2
-1,15,15,-85,-36,-16,4,-17
25,14,17,50,22,8,7,13
3,-66,-87,-25,3,-3,-7,-3
-16,45,20,38,1,-3,-6,-16
56,16,-44,-24,7,2,-6,31
2,-15,-53,-7,1,-1,-6,0
9,73,23,26,14,3,12,6
1,-74,-53,-4,-2,-13,-24,-13
-46,-15,-39,-10,3,4,0,-28
15,13,43,32,51,12,21,5
20,-3,11,-25,-32,1,9,31
3,127,127,-8,-4,-7,-7,3
-46,-83,-89,29,42,22,11,-15
29,-24,31,-9,-34,-12,0,10
10,-4,-35,32,36,9,-3,0
38,52,80,1,-3,7,8,10
-8,-34,-97,-27,0,12,16,12
-4,-15,-7,26,-44,3,22,-2
-21,-77,23,-12,26,2,-3,-2
13,38,24,6,-12,4,-3,10
-20,40,6,6,-7,-17,-9,-20
-30,-84,-88,-26,9,-6,-18,-12
12,107,104,7,-31,-6,4,-11
27,12,-27,26,26,-4,5,3
13,28,51,-5,-20,-4,5,30
-10,31,49,10,46,-4,-15,-7
-41,-111,-128,-28,-12,0,4,-13
-12,2,10,2,-4,-19,-32,-14
-23,56,49,-2,35,19,18,-8
56,122,108,4,-9,6,13,25
-30,-68,-66,-36,-51,-14,-13,-16
-10,-51,26,16,-2,-5,-9,-10
22,7,4,26,-6,-7,-1,12
-47,-87,-91,-69,-2,-1,-11,-20
62,88,53,60,32,0,12,18
1,-54,4,-27,2,11,3,7
-24,-40,-79,-6,-6,-19,-15,-18
1,29,87,7,-9,5,12,7
49,8,-75,30,28,3,5,17
-25,-89,-69,-7,7,7,12,6
3,-26,-74,-3,-2,17,4,-3
-11,15,-17,-4,-2,-9,-6,-11
28,77,34,-33,-26,-22,11,17
-26,-76,-108,3,-16,8,1,-6
5,32,34,27,25,-6,-10,-6
8,40,-49,-11,-16,-5,-5,-7
-33,-64,-17,1,19,3,-24,-23
-3,24,-51,-28,-46,-16,4,3
22,36,-10,9,-7,-9,3,14
-13,-77,-116,6,2,-2,1,1
-10,60,75,15,31,16,-11,-16
-7,-76,-88,-20,2,10,20,6
12,0,61,54,-2,-11,-9,12
-11,-25,19,-20,12,-8,-2,2
-8,23,24,-61,-72,-12,-19,-12
5,11,76,53,55,5,11,0
-22,-72,-44,-11,-2,7,12,-3
-11,-61,-121,-22,-30,-19,-17,-9
-24,-64,-67,5,30,13,16,4
33,26,2,-7,-7,-1,-11,0
-7,46,39,-46,-22,2,3,-12
-1,-17,-19,54,40,-2,-20,-3
-18,22,39,13,1,-2,2,-9
6,-39,-50,4,7,12,18,14
27,42,41,11,-28,-21,-12,1
-3,39,-11,-34,-26,4,-4,-9
-2,10,111,11,0,0,0,4
2,-26,3,30,34,-4,-32,-3
-15,-10,84,-38,-11,-4,-3,-11
-8,60,-2,-5,-9,8,3,-1
38,51,-45,42,34,9,19,18
-47,-22,12,-59,-52,-16,-21,-32
13,-66,-66,-11,8,4,20,29
31,61,104,41,11,-4,-16,-4
-45,-83,-126,-46,-38,-5,-23,-22
15,-18,-28,42,41,13,22,14
-13,25,-73,-46,3,3,-13,-16
-34,-82,-8,-5,-52,-4,6,-4
-12,-69,-56,48,44,-2,3,-1
-17,70,118,-39,-36,-15,-7,-11
1,-32,-89,2,6,9,1,0
6,26,-59,-10,10,-6,18,12
27,-26,-46,-29,-5,-7,-27,-4
23,17,-3,45,-26,-9,-4,9
-3,42,24,-15,-15,-2,-8,-13
2,28,13,-7,-29,5,9,12
-18,-14,-20,45,57,12,-3,-3
21,71,0,-22,15,9,-2,5
-13,-50,5,31,8,-13,-3,-2
2,-67,-90,-38,-11,-2,5,2
-6,29,84,13,-38,-1,14,16
0,-19,-11,3,65,25,6,-3
23,3,50,37,8,4,2,8
5,71,-31,-20,0,10,1,-8
-14,30,-46,-9,-17,-17,-18,-13
-50,-26,-47,-64,-41,-9,2,-10
38,-8,-53,8,7,1,12,23
-16,-24,-5,-13,-7,-10,-36,-20
5,2,106,-6,32,10,4,0
2,20,-45,-15,-52,-23,1,2
-18,-74,-92,23,10,-2,6,-1
37,74,36,2,5,4,12,11
-17,-73,-37,-10,-20,-11,-16,-9
8,-17,-58,-15,8,3,-4,0
-21,-1,48,-7,-33,-19,-3,-10
-19,-13,27,-5,34,23,0,-5
46,48,-29,-7,-11,-2,7,6
-5,81,124,19,4,0,16,21
-9,-69,-104,-31,-16,9,-2,-8
13,61,64,35,-3,5,10,6
4,-23,-16,-26,-7,-7,-9,-6
-2,46,32,12,-1,-5,-7,-9
9,-18,45,-5,-11,-2,2,11
-6,-21,26,2,31,2,-6,-8
6,4,-20,1,-2,4,15,12
13,5,-7,7,-14,-7,-9,-5
-18,32,39,9,19,3,-15,-13
17,-29,-9,17,9,4,22,18
0,39,38,-4,-4,16,20,6
-5,-18,-1,-7,-2,0,-5,-5
-16,17,22,-2,5,-1,-7,-14
-10,-71,-54,-18,-19,-13,-10,-3
12,25,17,16,8,4,9,4
1,-13,11,3,1,2,-4,-1
0,28,21,-7,4,-4,-8,-5
8,5,7,6,-2,-4,6,-2
-13,-10,-3,22,-6,-2,-2,-7
12,-3,-26,-18,-1,3,4,4
-12,-4,-5,0,-8,-4,-6,-8
-2,0,-5,-6,0,-7,-5,-2
-2,1,-3,-3,-5,-7,-3,-1
2,-26,-23,5,-3,-3,-3,-1
0,23,22,-4,4,1,0,-3
-8,1,20,-3,-3,-3,-5,-6
1,4,7,-1,-2,3,-12,-1
-1,-6,-9,10,6,-5,6,-2
3,14,-2,2,8,23,17,10
5,7,17,6,0,-4,4,4
-4,5,-13,-8,-7,-15,-9,-5
-1,-5,-16,2,3,9,-3,-8
-9,1,6,7,3,6,-9,-19
1,-6,7,1,0,-5,-17,16
5,-10,-16,-7,-2,-5,6,1
-3,-25,-24,-5,-7,-10,-9,4
0,22,26,0,-3,-3,5,0
-9,-10,-8,-9,-4,3,-3,-10
-4,-13,-16,-28,-8,-7,-8,-3
7,10,19,70,16,3,10,4
-5,-11,-19,0,1,-2,-5,-4
-2,-6,-6,-7,-6,-2,2,-4
2,7,-7,-15,3,0,1,3
-1,-8,-11,-30,-6,-3,0,-5
5,11,42,6,1,-6,-5,0
-3,-10,-54,-28,-17,-14,-6,-4
0,5,-5,0,0,-5,6,2
3,3,-12,-1,0,-13,-22,1
1,10,-11,1,2,18,11,7
4,20,48,16,6,0,5,-2
-5,-9,6,0,-3,-1,-8,-1
-5,-15,-63,-4,-2,-1,-4,-3
0,-2,88,-5,-2,-11,-8,1
-3,-16,-74,34,1,6,2,-1
3,17,20,30,5,1,3,-1
-5,-4,-20,-26,-2,-4,-6,-9
0,4,-6,13,-5,0,0,3
