-2,-6,-9,-7,-4,-4,-2,-1
0,7,2,-4,0,0,-1,0
-3,-10,-12,0,1,0,-2,-3
0,-5,-5,-18,-4,1,0,3
3,2,-6,-7,2,2,0,0
-2,0,-2,0,-1,-1,-1,-1
1,1,5,3,-2,-2,2,-1
0,0,2,4,0,-3,-2,-1
-2,-2,-10,-13,-9,-6,-5,-1
0,1,19,18,8,1,2,1
-2,0,-14,7,2,2,1,-2
-1,-5,-13,-21,-6,-1,2,0
-3,1,21,33,-2,-7,-3,-2
-2,-4,-3,2,-2,-6,-4,-1
-2,-4,-4,-24,0,2,1,1
-4,-6,-9,3,-1,-4,-4,-4
-1,-1,1,6,-2,3,2,0
-1,-1,-8,-9,-3,-1,-1,-1
0,-1,-2,7,-2,-2,0,-1
-1,0,15,25,2,0,-1,-2
1,2,-22,-36,0,1,-1,0
-2,-2,-1,5,1,1,0,-1
1,1,3,9,2,0,-1,0
-1,-3,-4,0,0,-3,-1,-2
-3,-1,5,18,2,1,0,0
0,0,-14,-13,-4,1,1,-1
0,3,1,-11,-1,-3,-2,-3
1,-2,4,4,-6,-3,-1,-1
-1,-3,9,5,7,1,0,0
-3,-2,-4,-3,-3,-1,-2,0
-1,6,32,44,2,-2,-1,1
-1,-5,-74,-81,-8,1,-1,2
-4,-2,3,3,0,-3,-1,-4
-1,-2,9,-5,-3,-3,0,-2
0,1,-8,-12,-6,-5,-3,1
-2,-5,9,7,0,13,5,-1
-2,-1,-3,-3,-3,-1,-2,1
-2,0,-16,-16,2,-1,-3,-2
0,2,5,1,0,-2,-2,2
-3,-3,9,5,1,-2,-1,-3
1,1,6,7,1,-1,0,0
-2,0,8,14,-1,-1,1,0
0,-3,-8,-10,-1,-1,-2,-3
-1,2,4,2,1,-2,-3,0
-1,-1,41,21,3,0,1,-1
-2,-2,-47,-42,-2,-4,-5,-3
-2,-2,-14,-24,-1,0,-1,-1
-1,2,22,35,5,2,-1,-1
-1,-6,-8,1,-1,0,-1,-1
2,4,5,-7,-8,-1,0,0
-1,-2,13,-3,2,2,-2,-2
-1,1,7,7,1,-3,-1,0
1,0,-7,6,-2,-2,-3,0
-1,-2,3,1,-4,-1,-3,1
-1,-4,-8,4,-2,0,2,-1
-1,2,-1,-4,1,-1,-2,-2
-3,-1,11,0,-2,0,1,-1
0,-1,-16,-7,-1,-3,-3,0
-3,-1,23,53,1,-2,-3,0
-1,-1,-5,-22,-2,-2,-1,-2
0,3,-2,0,1,-1,-2,-1
-1,-2,5,3,1,0,2,-1
0,-1,-8,-4,-3,-1,-1,-1
-1,0,9,7,0,-4,-1,-1
-1,-1,-5,-2,1,1,-1,-2
-3,-1,-15,-12,-5,-3,-4,-4
2,2,-10,-11,4,2,2,1
-1,-1,2,0,-10,-3,0,0
-2,-1,-11,-15,-1,-2,-2,-1
0,-3,14,13,-8,-3,-1,-2
-3,-5,-10,-15,7,-1,-3,-2
-1,1,-8,-14,6,-4,-6,-2
1,1,-7,11,2,5,2,-1
2,3,34,43,2,4,4,3
-4,-8,-17,-19,-12,-6,-3,-5
1,0,2,0,-22,-10,-4,0
-3,-1,4,18,36,11,0,-1
-3,-1,-6,-13,-9,-1,0,-3
-4,-3,-4,-10,2,-1,-2,-6
-1,2,7,9,14,-1,-3,-3
0,-2,11,-1,-15,-4,2,4
10,-3,-16,8,5,3,5,5
7,10,25,-8,8,1,3,6
-4,-8,-40,-21,-7,1,-1,-4
-4,1,3,-18,-7,-5,-1,-6
-5,-7,-1,-11,2,-3,-4,-5
-1,4,-8,5,-11,-3,-2,-2
-3,-5,3,3,16,2,-2,-2
-4,-1,2,4,-8,-3,-3,-5
-2,0,-5,-2,2,-5,-5,-3
3,-9,-11,-13,-14,2,3,5
11,7,10,32,-30,2,4,6
-7,-7,-16,-16,12,-5,-6,-2
-7,7,24,16,14,1,-5,-12
-8,-8,-12,-17,-18,-3,-3,0
1,-8,12,19,1,-1,-5,-7
25,18,-35,-27,-5,6,15,20
-8,-9,10,-21,-27,-10,-5,-2
-1,1,23,54,17,-1,-4,-5
-1,-5,-9,-38,-3,-1,0,1
-13,-2,8,37,-1,-4,-8,-13
-8,11,-2,-15,8,-4,-6,-8
9,-17,-19,-36,-6,3,7,10
0,2,8,26,7,2,5,4
1,1,4,-3,0,-2,-4,-7
-16,-3,-5,27,-2,-2,-4,-7
-1,9,1,-30,-19,-9,-9,-10
-12,-6,-4,-9,16,3,-1,-9
40,15,23,34,24,12,15,26
-11,-28,-19,-16,-7,-3,-4,4
3,15,-5,5,1,-2,-6,-11
-16,-25,-6,0,-9,-3,2,-1
-34,-11,-14,-39,-20,-18,-14,-24
-1,-10,12,11,-6,9,9,10
57,50,2,27,11,20,13,22
9,11,0,-3,0,-5,-4,0
7,22,-3,0,-11,-3,4,7
4,-8,-2,-11,-12,-8,-10,-20
-38,-26,-5,-18,2,-4,-2,3
18,4,4,4,6,2,-2,6
-22,14,4,4,-13,-2,-8,-19
-6,-25,-6,-13,-9,-5,1,11
-17,-6,1,2,-6,-7,-4,-7
23,29,8,11,-22,1,6,10
-23,-46,-14,-22,-15,-7,-9,-12
35,39,7,16,26,9,12,19
-35,-21,0,-3,7,-10,-13,-23
-5,4,3,-30,-55,-7,-8,2
38,15,-8,-15,32,8,11,11
-8,-31,-34,53,19,12,1,-9
5,46,36,-36,-30,-2,2,6
-30,-50,7,13,31,-6,-8,-13
4,15,18,12,8,4,11,3
-19,-10,-18,-2,2,4,-22,-17
-28,-13,-15,-48,-36,-16,-19,-18
15,21,-8,22,27,4,29,14
-14,8,7,32,-18,-4,36,7
1,-22,16,-21,-37,-19,-31,-7
36,-6,-8,20,31,18,21,26
-33,2,-9,-64,-31,-8,-43,-32
0,-23,-26,30,-26,-8,6,-6
-47,-3,-2,10,-40,15,31,-17
2,-18,3,-5,7,-27,-40,-23
58,72,35,5,12,11,53,95
-2,-30,-14,-12,18,-1,-19,-11
2,9,5,8,-21,-7,-23,-21
20,16,21,46,-10,12,29,19
-25,-9,15,-27,-23,2,21,-27
41,28,-13,16,49,0,-62,10
33,87,29,-37,4,-23,-6,10
-40,-93,-12,47,36,22,-7,-18
15,-20,-11,-4,14,-8,-6,-13
24,-5,7,-8,-44,1,34,37
-25,39,-22,-12,24,15,28,27
16,-14,-9,2,36,-9,-33,-31
2,38,-10,-47,-18,-3,27,51
-7,7,22,60,64,25,-21,-35
51,-50,-11,-23,-52,-16,27,21
-39,65,17,28,62,11,-13,-20
-23,-78,-5,-7,6,0,-13,-16
-19,1,-23,-20,-3,-18,18,-4
-24,28,46,-14,-54,-24,-18,-15
12,-37,-9,38,-10,22,17,29
-34,-23,-44,-37,11,-11,-33,-28
71,38,3,-78,-65,-10,-5,9
-18,-49,3,68,74,23,49,14
2,26,-25,-73,-110,-46,-46,-44
15,-8,28,90,35,13,-20,-6
-51,-45,-35,-35,-12,11,-8,-1
-17,16,-12,-65,3,-28,-30,-23
23,3,44,0,10,10,31,-27
17,6,-31,61,39,-1,0,18
-1,-1,-17,-7,40,13,4,8
20,-10,-35,-12,-5,19,13,-15
-13,91,50,20,69,0,-46,-17
-43,-81,8,1,-23,12,52,-7
11,11,31,-24,-30,-17,-41,-4
-26,-21,4,21,30,5,22,12
34,11,-39,0,-3,12,-8,2
-11,7,4,14,8,1,5,-8
-6,23,7,18,16,-3,32,16
21,15,4,-39,-33,-4,-19,-8
4,4,17,89,27,27,76,65
10,91,10,-105,-87,-56,-33,46
-31,-46,1,94,95,25,8,-11
15,-18,-10,24,-67,13,37,33
-58,-28,-12,7,17,9,-20,-8
34,4,-26,-56,0,-29,-45,-31
-38,-26,15,70,30,-19,-33,-15
1,-19,-46,-55,-26,-10,-11,0
5,-11,6,12,14,6,9,-19
-12,83,17,5,-39,-14,-18,-46
-26,-97,-38,-59,-68,0,-32,-17
28,3,-9,39,89,28,49,11
-19,9,-35,17,2,-29,-1,16
22,-25,8,26,-19,20,-35,-24
26,45,34,-17,-20,-4,25,39
-41,5,26,-6,-31,-13,-69,-42
14,-100,-30,-39,20,5,45,36
15,37,-20,20,30,18,4,-17
-48,-50,-6,-91,-111,-51,-20,-18
27,37,15,48,127,30,24,9
15,8,17,28,2,-9,-87,-8
-2,-13,-56,-10,-7,7,14,32
-9,9,40,29,33,18,26,-11
-11,18,-16,-25,-7,-6,-30,9
12,63,-3,-38,-64,-7,40,-7
-22,-107,21,25,20,8,-8,1
24,16,-13,9,26,10,-22,23
9,11,89,55,-3,13,27,-6
-39,-11,-99,-107,-53,-68,-24,-24
-15,9,8,48,61,14,-20,-33
40,13,19,-65,-7,4,33,62
-7,-6,-15,110,16,-43,-29,-34
4,-11,-3,-55,23,31,-5,-12
-30,30,29,1,-7,25,101,-37
43,25,55,-46,-1,-13,-44,38
40,39,37,67,-39,25,45,40
-16,-36,11,-20,-43,1,-22,-3
-35,-24,26,25,-14,-29,-29,-35
24,29,-94,-15,-20,28,41,-1
-36,13,24,-72,39,2,-22,19
20,-13,21,66,-34,12,54,22
-5,18,26,-3,9,4,-81,-40
-31,15,-3,-19,-46,-37,-29,-8
4,-15,-2,-53,1,-2,-22,-28
-1,-9,-15,-9,9,-20,-9,8
59,74,15,-5,49,36,71,18
-61,-82,-29,73,18,-25,-74,-36
-4,0,-69,-43,-36,44,24,9
2,-17,25,-26,21,-36,-99,-69
18,-25,10,-9,4,4,90,105
-20,60,38,2,-10,-32,-38,-51
-36,27,-19,-71,-12,-24,48,-96
68,-44,-11,73,83,56,62,75
4,-20,-58,-23,-51,-27,-80,-66
4,2,38,44,2,79,112,15
-3,17,-29,-24,-9,10,7,-5
-71,-6,32,-21,-65,-23,-49,-77
-22,-42,-32,-25,27,42,70,4
13,3,-57,-24,-61,-31,-43,-33
58,-26,42,21,35,-23,-64,92
-28,5,-42,-36,-63,4,63,13
7,31,26,54,51,17,-9,33
-8,-35,-32,-82,-48,-18,-6,-45
-48,-39,26,99,3,-27,-33,-45
55,66,73,4,-3,34,39,57
13,11,40,-1,3,-5,-2,36
-13,7,-7,-16,16,-14,52,6
-25,-39,15,27,9,-2,-82,-25
-4,34,-94,-100,-89,-49,30,-15
-11,-54,10,74,71,0,-12,35
18,37,77,56,2,59,64,51
38,13,-18,-64,-68,-28,15,-6
-9,-41,-3,-23,5,-9,-35,-20
-23,-24,-68,-36,-38,-9,44,-14
-2,24,14,-20,9,-49,-121,-64
-36,-42,39,80,8,5,44,28
0,11,-20,41,28,10,-46,8
32,30,1,-5,-36,-29,-34,-6
-9,-28,-7,9,49,42,45,7
-1,8,-4,-75,-22,-32,-36,-38
-11,18,1,41,-32,1,-1,-12
-59,-11,41,-6,-24,15,-48,-71
89,26,-28,13,36,-9,46,59
9,5,-11,-46,-9,20,78,75
9,16,15,42,34,5,2,27
-55,-52,-64,-96,-43,-40,-9,-73
-34,45,34,67,-16,-31,-92,-61
21,-3,-83,-80,-54,-27,30,8
58,58,8,51,85,21,-23,89
14,32,5,-4,-19,-19,37,-1
-11,-12,-36,-25,9,24,-34,-4
-1,31,-3,-25,-37,-21,-54,-17
-62,-34,31,27,-31,2,0,-105
23,-3,0,62,22,58,19,67
16,6,-18,-4,13,-31,5,25
-7,-12,-25,14,25,15,-3,-16
-13,-15,-14,-55,-27,-6,4,-28
4,35,66,16,10,4,-30,9
-9,-63,-30,-15,-31,-2,45,-18
6,-8,0,6,0,-25,-31,3
1,-2,10,6,26,72,67,26
20,22,6,-15,-22,-29,-16,9
-19,2,16,16,-1,-24,-7,-14
17,14,19,34,38,74,19,17
3,1,5,-31,-5,-6,10,11
-8,-10,2,-15,-29,-9,-19,-27
-10,13,17,-2,2,3,14,-12
0,-22,-51,-15,-10,-34,-33,-9
6,17,38,33,66,10,22,5
6,-2,-34,-2,10,7,-11,-2
-14,-5,10,9,-9,-19,-3,-9
4,9,0,-9,4,-1,4,1
1,-7,-6,-13,-15,-1,-17,6
5,5,34,11,2,-1,4,-1
-3,4,-15,14,3,10,0,0
-6,6,7,6,1,-25,-18,-13
0,3,-13,-15,-3,30,15,4
1,7,-1,9,8,9,53,-1
-5,14,24,-2,-4,13,-52,-11
2,-2,-20,7,4,6,14,17
-10,-8,19,21,-9,-64,-15,-13
5,-14,-74,-56,-14,-5,-13,6
0,-7,38,50,20,52,56,8
-7,-11,-26,-45,0,-20,-22,-20
8,-4,7,-17,-13,-9,-1,13
0,2,68,45,-15,-9,-7,-7
-4,-7,-7,-5,26,7,13,-5
-2,-26,-3,26,6,11,-14,-5
4,25,57,6,-9,-5,9,-4
0,-7,-30,-46,-25,-12,-22,-6
-1,-7,22,-9,15,-9,5,2
2,15,46,33,17,14,16,-1
-6,-20,-18,-13,-7,-11,-7,-3
0,1,31,27,4,-5,-10,0
1,4,-31,-50,-21,3,3,3
-2,-1,-9,-9,7,16,16,3
-1,-7,5,-31,-20,-14,-6,-1
-3,-1,9,25,9,-8,-15,0
-2,1,8,60,19,-7,-5,2
7,10,0,-36,-3,42,28,8
-4,-8,-41,83,1,-10,-4,-4
9,16,20,-35,16,18,7,27
-7,-13,-90,-50,-22,-14,-2,-29
1,1,17,-25,-3,-9,-6,-2
9,24,92,79,19,6,0,6
-23,-49,-128,-91,-28,-20,-18,-19
3,9,65,5,-7,-3,0,8
-4,-7,-60,79,1,-5,-6,-2
-4,-2,-18,-34,-16,-11,-1,-4
3,9,77,47,13,0,-3,2
1,2,-55,21,2,5,6,6
-8,-13,-37,-65,-21,-1,-2,-8
-7,-9,57,83,17,-10,-10,-3
0,1,-32,-55,-21,-17,-12,-6
2,2,44,9,-4,36,16,8
2,8,2,43,16,2,0,1
-3,-10,-55,-59,-12,7,1,-1
2,8,39,-43,11,26,13,5
-4,-2,-2,-52,-10,-5,4,-4
0,5,12,81,4,-9,-2,-5
2,5,18,-34,-4,-1,-1,-1
0,-8,6,23,-3,-8,-8,-7
-7,-14,-95,-13,-7,-5,0,5
3,19,35,-17,7,-3,-1,2
-8,-25,-47,-15,-4,-5,-2,-7
2,1,5,14,-2,2,2,5
-1,-4,1,-2,-3,-7,-3,-1
-2,2,39,16,6,0,-2,-2
0,8,-27,-8,-3,1,0,-3
2,0,-4,42,25,3,3,-1
5,19,117,-13,-18,2,1,3
-6,-14,-25,-12,-3,-9,-1,-9
4,3,2,-58,-4,17,10,6
-5,-9,-6,-9,-5,-7,-6,-6
-2,-3,-11,4,1,-11,-6,-5
0,3,2,0,6,-1,0,3
-4,-3,31,-29,-5,5,2,-3
0,7,24,42,-5,-6,-5,-3
-2,-5,-24,35,-3,-2,-1,-2
-6,-3,7,-100,-20,-6,-3,-3
-2,-5,-69,58,4,-6,-3,-4
-2,0,-28,-3,7,0,-5,-5
3,2,-5,-28,-4,-9,-7,0
-4,-16,-9,61,3,5,5,-1
-5,-9,-21,-58,-12,-10,-7,-3
0,-4,-24,10,-3,5,5,0
-4,-6,22,-4,3,-10,-6,-6
5,13,38,6,5,4,-4,4
-4,-9,9,-16,-6,2,0,-1
4,8,-6,-2,0,5,6,2
-3,-8,-7,11,-1,0,0,-2
-1,-5,0,0,-5,-2,1,1
1,6,-40,3,4,-6,-6,-1
-3,-3,13,8,-2,-3,-5,-4
1,-1,-63,-50,0,3,0,1
2,1,26,-1,-2,-3,2,1
1,0,8,39,0,-7,-2,1
-2,-2,-10,-47,-10,-6,-5,-2
-3,0,21,59,6,0,-2,-3
1,4,43,40,5,-2,-3,-1
0,-2,-19,-49,-10,3,4,0
-2,-2,4,50,10,1,-2,-1
-5,-3,-9,-37,-10,1,3,-1
1,9,84,22,0,2,-1,-1
-1,-1,-24,-14,-8,-5,-6,-3
1,2,-15,3,-2,-2,0,0
-1,-6,-13,16,8,1,-1,0
-3,-1,20,-21,-6,-7,-5,-3
-1,1,-11,-8,-3,-7,1,-1
0,3,21,63,8,12,-3,-2
-3,-12,-30,-64,-17,-2,9,-1
0,-4,-40,-6,-2,1,0,1
1,1,6,4,1,-2,1,0
-3,-2,11,-9,1,-6,-2,-1
-1,2,10,-9,-20,-7,-5,-2
-1,-9,-47,37,9,6,-2,0
-1,3,14,-6,6,0,1,0
-2,-2,15,36,2,-2,0,-4
3,1,2,-37,1,0,-8,1
-1,1,18,20,-6,-4,5,1
0,-5,-22,-37,-7,-6,-10,0
-2,-9,-65,-42,-3,-4,-1,-2
