-2,3,9,3,3,6,21,-11
-4,-6,-13,-23,-2,-7,-16,-4
8,-5,-5,1,-11,-10,-9,18
12,8,2,-1,1,1,1,2
-9,-1,2,-3,-8,-4,-9,1
-7,7,8,-1,11,6,9,-17
4,5,-1,6,6,0,2,-2
3,-5,6,-2,4,4,2,1
-2,-29,-24,-3,-7,-7,0,9
6,11,5,-3,6,5,1,-3
-16,-10,-7,-5,1,-3,0,-9
-4,4,-3,1,-3,-3,-1,0
2,-8,9,8,-5,0,-5,2
3,-6,-8,0,8,1,2,5
-19,5,22,6,-2,-3,-9,-16
19,-11,-36,-23,-12,1,6,-2
5,0,-24,-18,-2,-5,7,16
6,2,13,17,4,-7,-9,-2
-18,5,4,12,5,9,5,-6
-17,-17,15,4,-7,-13,-20,-11
3,0,-36,-47,-11,-1,6,7
7,-9,28,43,5,-1,8,5
5,-12,-33,-17,-9,-4,-10,5
-9,11,9,2,4,4,-7,-10
-6,0,-12,-3,-4,-6,-11,-9
10,21,19,-12,4,6,17,15
-23,-23,-1,16,0,-7,-11,-22
37,11,0,-11,1,1,2,22
7,40,18,25,4,2,3,-5
-2,-36,-16,-12,-3,8,7,4
15,42,30,1,0,0,9,12
-47,-80,-51,-26,-14,-5,-10,-21
22,17,28,22,5,3,13,9
-20,-22,-72,-96,-15,-11,-21,-15
6,13,39,77,11,7,1,-2
-10,15,13,9,4,5,9,-3
6,-23,7,6,-3,-2,-9,4
-4,10,-5,-4,-1,-1,4,-4
4,2,11,-27,-16,-2,1,0
2,-8,-29,-20,-3,0,10,5
-27,12,22,32,4,-5,-21,-22
20,-19,-25,-30,-16,-3,-3,-1
15,-35,-54,-11,8,3,7,17
4,26,33,6,-14,-13,0,5
3,4,4,-7,-1,7,22,7
-19,14,35,37,21,-1,-30,-20
-14,6,-2,-22,-11,-6,-8,-21
-9,-12,-18,1,8,8,11,17
-5,-37,-19,-1,6,5,3,-1
8,31,21,9,-2,-2,5,-2
12,-19,-20,-12,0,2,3,4
10,26,34,2,-1,-8,-9,-1
-7,22,6,8,9,5,-3,-2
-2,22,43,49,14,7,3,3
-5,-60,-10,-14,2,-3,-4,-9
-14,39,15,-5,-15,-14,-26,-20
16,18,14,28,-3,1,6,17
-16,25,23,29,68,31,11,-3
16,-19,-41,2,3,6,24,15
-16,5,5,11,8,-3,-4,-15
15,-7,13,-24,-15,-10,-35,-16
-11,-12,-29,-11,-20,-18,-28,0
17,9,25,1,3,4,25,31
21,12,-21,-3,6,3,-20,1
-20,-48,-44,-10,-11,-3,15,-5
6,-3,-12,-13,-12,-6,21,7
-5,35,24,15,5,-1,-3,4
11,-37,-58,-19,-15,1,16,6
-40,-19,20,-6,-4,-8,-16,-31
15,-19,-54,-24,-12,-4,-21,11
-13,0,-23,-9,-7,-9,6,-14
-1,22,47,-5,-6,0,24,-18
-11,-4,-10,23,0,1,-41,10
38,-30,-22,-3,-8,1,27,12
-15,61,52,12,5,-10,-26,-11
15,-18,-17,-10,-19,-7,-3,-20
12,28,34,-3,59,26,32,24
-4,18,33,14,-11,6,27,8
-14,-30,-50,-27,-14,-14,-54,-26
-20,6,-22,-3,-8,-7,-15,-12
4,-35,-50,-13,-25,-13,30,9
-1,-31,-29,-20,-13,-20,-56,-10
-12,-4,4,-12,-3,-2,2,-13
9,46,53,41,27,13,12,22
-28,-52,-67,-33,-29,-19,-4,-10
-4,0,-39,-2,13,7,8,-5
-4,4,43,-17,-10,-10,-25,-7
-13,-52,-55,22,-58,-16,-4,-15
37,72,99,27,69,30,23,37
-19,-26,-44,-20,-6,-4,6,-4
25,12,14,20,-3,9,11,10
-26,-35,-54,-24,-9,-2,-4,-1
-16,-26,-8,6,-11,-14,-28,-30
-8,79,50,-23,-15,8,13,-9
27,-44,-43,-23,0,-2,23,18
-17,-36,28,22,23,1,-19,-5
8,-33,-59,-22,-29,-2,2,-4
-20,37,94,27,13,-3,-22,-16
29,36,74,38,10,12,36,15
-22,-24,-24,-41,3,6,-8,-2
28,34,5,19,1,-4,-4,-1
-31,-78,-15,-36,-33,-9,14,-9
-13,36,-10,34,15,1,-17,-11
10,-18,21,-2,-7,-7,3,24
-8,-24,-10,-21,4,-5,-8,-2
9,54,-58,11,-14,-3,5,-12
-41,-72,-53,-5,-2,13,16,-2
35,17,11,-13,6,-9,-9,10
-13,-1,4,4,-5,-1,-4,-1
19,1,27,-11,2,4,6,12
-48,-6,5,-16,1,-7,-16,-25
44,113,23,28,26,23,40,29
-24,-67,-23,-16,-13,-22,-54,-29
42,45,71,44,23,2,3,17
-22,11,-3,-19,-30,-8,-24,-17
4,-28,-7,15,33,12,14,3
7,24,35,4,-2,4,22,-6
-43,-49,-2,3,3,2,-6,-10
63,33,-68,-30,-2,-4,-6,12
-3,-41,3,-8,-23,-5,11,29
-15,-56,-68,18,-5,5,18,8
11,56,26,0,2,-6,-25,-15
-18,-40,-44,-16,-39,-7,9,-6
-9,39,66,30,16,19,16,-22
52,108,64,27,21,-3,7,46
-9,-48,-37,-40,-16,-5,17,6
11,12,8,7,28,9,7,9
-20,34,23,33,11,-3,-13,-15
-3,1,76,-33,-17,8,-10,-12
17,3,-10,23,20,9,26,14
8,10,11,-10,-1,-10,-12,5
-22,-53,-85,-52,-43,-11,-48,-40
21,30,2,24,38,7,73,43
17,-26,-61,31,44,19,18,17
18,53,74,7,6,2,9,10
12,32,28,54,34,10,-4,-2
-45,-65,-77,-105,-57,-24,-46,-32
-5,-44,-58,3,-11,-2,-10,1
28,40,52,33,26,14,14,17
10,15,37,12,5,-7,10,7
-26,-18,-97,-35,-19,6,-14,-24
-59,-36,-1,1,5,-15,-18,-28
43,-10,14,12,4,11,10,20
-6,-2,-38,-51,-28,-11,-19,0
17,54,53,48,-3,-10,9,-3
-13,-53,-62,-61,-14,-17,-32,-17
-33,-16,-11,10,7,4,9,-4
5,-43,-25,25,0,-6,-2,3
23,118,66,-24,-13,-2,-5,4
13,21,19,11,-10,1,7,7
-33,-28,-35,-41,-31,-18,-31,-29
47,13,2,37,25,12,7,30
-17,-22,31,14,2,2,-4,-16
-3,-9,14,6,-13,-8,-3,15
-1,-16,-30,-25,-2,2,-4,-7
-33,27,82,-4,-7,-14,-6,-20
3,-15,-79,-28,-33,1,-41,-16
8,45,-3,27,-24,-4,11,7
-19,-90,-37,13,3,7,-19,-25
-5,4,14,-35,-24,-20,-5,12
-23,55,86,78,77,19,17,-3
37,-38,-68,-97,-67,-21,2,-1
-25,-10,-30,26,32,12,-9,1
-8,-35,28,-21,-26,11,21,-12
7,22,5,8,-11,-15,-7,-6
-10,-1,66,31,19,5,-6,18
4,50,-3,-29,-20,-29,-15,-15
-40,-28,4,-2,15,6,-5,-15
16,6,-21,-4,-1,2,13,13
-15,-68,-42,-34,-22,-6,8,-31
29,50,12,21,8,-6,-27,21
-17,-62,-57,-19,-3,3,4,-15
6,-8,-49,-18,-14,-4,6,13
12,76,98,51,19,3,-3,8
-1,-35,-54,-14,9,-5,6,2
-28,10,-8,-6,8,-2,-10,-20
37,-66,23,40,29,20,14,5
-28,-40,-87,-49,-24,-6,6,-14
-15,-50,-31,-34,-41,-11,-17,-7
22,78,56,16,43,7,-5,13
-21,-66,-27,-21,-29,-9,4,-15
8,60,64,38,28,23,30,31
-21,-3,-8,-10,-9,-8,-29,-17
-5,-48,-79,-18,-19,-10,-6,-14
15,48,42,13,-3,11,26,18
8,109,92,19,34,1,-4,-2
13,-34,-10,8,-3,1,13,-14
-7,-12,9,-22,-8,-3,25,27
-4,8,25,10,32,1,-16,-8
-2,-20,-58,14,7,8,-6,-12
-17,-8,63,-66,-38,-11,15,6
24,67,1,69,33,15,1,1
-44,-33,-42,-26,-26,-7,-13,-27
-2,-109,-128,-2,4,7,-11,4
-10,-31,20,10,8,-6,24,-2
3,-28,-42,-6,-15,-1,6,18
17,55,8,-18,-30,-5,9,15
4,-17,-12,27,22,4,4,-6
-11,4,-35,7,9,10,16,-11
27,-38,-109,-21,-15,-19,-23,17
-4,-14,-18,5,14,3,9,17
11,44,78,-6,0,8,37,-6
37,81,-32,15,0,-1,-9,21
-19,-33,-25,-18,-8,-2,12,10
14,43,5,10,11,-3,-22,-12
-18,-44,-39,-31,-28,-10,-14,-4
-23,-27,-63,-5,-12,15,24,-2
35,83,108,22,31,10,11,14
0,-54,-21,14,9,2,-13,-5
-25,3,-7,-14,8,-9,-19,-17
25,69,106,12,-5,-1,10,3
-2,-67,-18,-28,-22,-14,-30,-19
-19,50,57,24,7,0,17,-9
55,20,-13,23,9,2,-14,-4
-14,4,-41,-10,-7,-9,14,40
14,-27,-31,32,5,-4,1,1
5,-49,-52,-32,-2,4,-2,2
0,57,25,9,-6,-3,-23,3
-12,-68,-71,11,20,4,-5,-8
11,84,40,3,-46,-21,-1,-15
-34,-57,24,0,9,11,-1,-7
16,8,-87,-63,-23,-14,-15,0
20,91,109,51,30,3,-5,-4
-38,-40,36,5,12,-1,-4,-14
12,56,-3,-16,-24,-21,0,-15
4,-45,-37,23,-4,8,5,10
-9,93,65,-30,-36,-14,-14,-24
-14,20,33,-29,26,15,-2,-10
-10,-6,-58,32,22,-5,5,-3
21,-21,57,9,-9,-5,-24,22
16,-19,-51,4,-3,6,34,38
0,7,17,46,24,9,-6,-20
6,-5,12,-64,-49,-21,-3,22
20,5,73,-15,-10,-5,18,11
-31,-1,30,26,27,9,54,-8
-15,-51,-77,-22,-7,-13,-89,-14
-20,-6,46,-47,-46,-25,-35,-38
-1,-23,-3,22,15,-2,3,25
-6,-22,-25,-25,-17,4,22,-6
-17,-10,-82,-47,-16,-10,12,-47
29,-48,-120,74,18,-2,-24,59
-35,-20,6,-1,-1,-3,-42,-33
10,-31,18,-24,-30,-9,34,4
1,84,100,-2,-5,-5,-32,-7
-27,-59,-94,-24,-10,-10,-41,-51
7,-5,107,12,5,10,91,13
-29,-77,-128,-23,-19,-27,-128,-64
28,77,59,46,22,20,66,43
-24,-71,37,-32,7,20,24,16
-15,35,6,26,0,-10,-37,-38
-5,-23,-43,-17,-2,-1,-10,-12
7,55,11,-38,-20,-5,-38,-32
42,-11,-46,21,26,13,65,100
-31,-17,-65,-42,-11,-20,-37,-26
-13,-24,70,12,-18,2,-2,-4
-2,-70,-54,-38,-16,-5,22,19
-34,43,-11,66,5,17,-15,-48
33,28,57,6,0,12,27,24
-7,-84,-81,-10,14,2,-31,-1
8,-29,-10,-1,-51,-18,24,12
7,14,-14,6,15,3,-24,-20
-44,-9,-3,-1,16,-1,-15,5
18,15,5,18,12,10,10,-19
-6,-105,-82,-2,1,5,2,5
-12,16,24,3,13,-5,21,8
11,-18,-41,-1,2,12,9,-2
-23,-44,-57,-1,0,-1,-1,4
16,65,51,9,4,-8,-9,-4
-17,-10,4,-12,-9,-21,-19,-35
-5,1,17,-53,-66,-20,-47,-25
13,18,10,36,67,17,20,27
-7,-45,-25,18,11,5,21,9
-26,-38,-78,-27,-12,-18,-31,-50
3,-51,-31,34,2,8,9,42
38,92,64,-40,-12,5,17,22
5,19,-2,15,5,4,3,24
1,13,-17,-19,0,6,23,-7
-62,-40,-27,-10,0,-2,-33,-83
68,5,91,42,20,2,3,65
19,15,-32,33,34,24,26,15
-13,-44,-36,-57,-46,-15,-17,7
21,24,1,42,27,10,12,1
-19,8,49,-15,0,8,-6,-18
22,106,49,-23,-6,1,39,21
-2,-38,-49,-4,-29,-5,-29,-5
-10,-35,-116,21,5,-4,9,-2
-9,85,32,30,4,-5,-24,-18
24,-50,-91,-46,-19,-4,35,18
9,105,127,68,33,8,-23,-14
21,51,40,-41,-37,-23,58,47
-37,-99,-51,-9,1,3,-42,-32
0,31,-19,2,0,10,46,60
42,16,49,-23,-9,-4,3,7
-3,61,65,-13,-8,-8,1,-11
-24,52,75,32,6,-16,-48,-27
-3,-44,-73,-18,-4,-5,-14,4
-13,-29,-23,-4,2,-7,15,-2
-16,-87,-115,-58,-6,11,20,8
-2,-32,-83,4,-12,2,30,-7
-5,61,53,47,19,1,-47,-35
31,-11,3,-44,-11,-12,42,52
-15,-50,-13,18,-19,0,-31,-33
21,16,-13,28,28,12,52,28
-40,-27,-13,-15,-32,-19,-19,-60
11,6,-3,26,29,7,-67,1
28,18,47,14,17,1,13,14
-18,-39,-71,-67,-45,-26,-27,-11
-26,-42,-38,-6,-3,-17,-51,-44
19,15,-43,14,5,25,59,33
-21,-9,-63,-9,-10,-4,-44,-22
4,-16,-13,22,-2,-5,18,15
-37,-105,-80,-18,7,10,19,2
3,17,10,-9,-5,3,0,-21
14,29,-3,-3,7,-2,-23,0
-6,2,26,27,13,13,52,7
32,-19,5,-14,-6,1,-13,7
-7,-6,17,12,3,3,4,0
6,5,-61,4,16,6,11,9
4,-32,10,-3,2,0,2,3
-9,2,2,4,3,-6,-9,-7
-9,-3,11,2,-17,-5,-13,-12
7,17,24,6,19,3,16,9
1,-1,-2,-10,-10,-1,0,1
1,-4,0,3,3,3,-2,5
0,-9,-11,3,3,1,7,-1
-3,22,23,-3,-4,-3,2,3
13,33,-12,-8,-7,-5,-8,5
-4,2,58,5,5,3,3,2
-5,-1,-21,2,1,-16,-8,-10
-1,24,36,3,1,7,5,1
3,2,29,-10,-1,-1,-11,1
0,7,-12,-15,-5,-2,0,-3
-7,2,30,0,-3,-16,-9,-10
4,-4,-8,-3,12,25,8,11
14,9,31,16,-1,-1,-1,5
-11,1,1,28,4,8,4,-4
-4,-7,-43,-44,-3,3,-8,-4
-1,11,45,16,3,-9,3,2
-3,1,-44,-33,-13,-1,-7,-3
-1,7,8,-7,1,-7,-1,-2
0,10,28,26,2,0,3,-4
0,-2,12,15,5,-2,0,-3
-1,-17,-35,-24,-4,-2,0,-2
2,-6,25,57,10,0,0,1
1,-4,-8,-49,-5,6,6,1
1,-4,20,45,3,-1,1,0
3,-6,11,-14,-1,-1,3,1
6,25,106,67,14,6,-3,4
-1,-9,-64,-50,-6,6,3,-1
-9,-13,-1,-64,-9,-6,1,-2
1,4,29,58,13,-2,-2,17
2,7,-22,-41,-10,-5,-8,-22
9,29,127,66,14,15,11,4
2,-2,-86,-96,-9,-13,-7,0
-5,7,79,89,5,-7,0,-5
-10,-20,-89,-69,-16,-29,-16,1
0,1,8,8,2,-1,4,2
-2,0,34,53,-1,7,4,-17
22,5,-49,-72,11,20,18,49
-10,4,67,6,-4,-2,-17,3
8,-9,-74,38,6,-6,5,14
4,-9,-29,15,-3,-3,-2,-11
-3,2,-15,-32,-12,-2,0,-14
3,-4,42,-18,-5,-6,-1,7
-5,4,-3,47,3,1,1,-10
-9,-5,65,-10,-15,-1,0,2
-4,-9,18,106,5,-12,-11,-11
-1,1,-58,-108,-10,8,5,-5
-5,6,92,104,16,6,-2,-4
-3,-13,-95,-56,-5,-10,-9,0
-2,0,-15,-60,-17,-3,-6,-10
-11,-6,36,123,16,0,3,-4
0,-13,-37,-9,-1,9,2,-1
2,6,38,-15,-3,-13,-5,8
-5,5,-25,3,3,11,2,-6
3,-6,34,2,-3,0,5,25
0,3,-29,-92,-18,6,0,-14
-3,3,44,86,18,3,-3,0
-5,-17,-81,-60,-11,-9,-10,-10
3,3,28,35,9,17,20,3
-8,-2,35,-51,-10,-9,-7,5
0,7,-7,47,7,3,3,-6
-3,-6,-12,-28,-10,-2,0,-2
7,8,-10,2,6,3,-8,-6
1,-5,-29,-14,0,-5,1,5
0,3,22,29,2,5,4,0
-2,1,-5,52,1,-10,-2,-3
-6,-15,-79,-52,-6,3,0,-11
-2,-2,-23,-3,3,-2,-2,-4
-2,-2,5,-13,-1,-4,1,5
-9,-4,-12,-25,-7,-8,-2,15
17,6,16,12,2,13,5,-17
1,5,33,60,4,0,-1,-5
2,1,-46,-76,-6,-1,-3,8
-5,-9,22,19,1,-3,-5,-7
1,-7,-27,2,-6,-7,2,3
-4,2,-3,-5,3,1,-1,0
0,-2,-10,-8,-3,-2,1,-3
-2,-7,-7,-23,-8,-2,-2,-6
-7,4,-19,6,-3,-4,-2,5
