-9,-19,-8,-21,-11,-3,-5,-12
-5,18,-1,5,-11,10,-2,-1
-6,-23,-21,-59,-13,-8,8,9
-53,-37,11,44,-2,-12,-15,-9
32,54,6,36,-9,8,6,11
7,-69,-46,-58,-54,-20,-3,-6
-8,12,15,44,36,7,4,-18
8,26,17,-28,-22,-5,13,13
-8,19,2,12,48,-7,-4,-12
-9,-18,0,26,41,11,-8,-9
-45,-3,-1,-9,13,8,-14,-26
36,-18,-46,-58,-45,4,24,13
33,111,59,48,13,-4,-25,38
37,-56,-48,-21,-28,-21,2,27
-13,-10,6,-18,-50,0,-7,-28
-20,26,15,36,64,16,13,-8
-5,-34,-18,-40,-42,0,0,-10
-34,68,73,33,61,5,-12,-5
-19,-31,-33,-13,-52,-23,-26,-20
-9,-17,19,58,6,8,8,-7
35,-17,-38,-62,-26,-3,13,21
-50,5,16,32,29,5,5,-14
44,41,35,-13,5,3,21,10
-16,-16,35,-10,-40,-3,4,-14
-16,-41,-62,11,16,-19,-57,-26
-13,-19,-52,-37,-30,2,14,-12
28,73,56,27,-4,6,8,32
9,-34,-50,-33,-3,-34,-17,2
-23,-31,30,47,76,47,31,-3
1,7,3,-5,-38,-4,-7,-25
-5,-45,-87,-23,-4,-2,20,18
-13,46,43,2,5,18,19,2
43,38,45,0,-27,-3,-27,13
-19,-43,-41,55,13,-3,-3,-12
8,19,-61,-36,2,-2,-16,-10
-41,-32,19,30,32,9,-18,-18
22,12,10,-15,-8,-1,21,-4
19,2,63,-8,-43,-3,19,32
-55,11,11,-15,35,-9,-24,-28
54,-10,-53,47,86,18,10,42
-23,-17,40,36,15,-4,7,-25
-19,-80,-114,-60,-37,-21,-7,-13
-16,6,111,33,-12,-6,6,-12
5,9,-42,-98,-69,-16,-2,13
39,52,29,48,77,52,51,48
12,-14,2,-3,14,-17,-24,5
-13,-29,31,30,-3,3,-17,-7
-1,41,-66,13,2,0,-6,-5
-43,-59,-30,-89,-68,-36,-29,-30
-20,54,45,3,4,8,24,-10
39,-7,-9,39,45,9,-27,13
1,31,100,54,10,3,2,-1
-26,-6,-47,-36,-18,-20,2,-10
21,-19,17,-1,9,7,6,18
-12,-1,-8,-27,7,-11,5,-14
9,18,1,1,-13,-9,8,7
2,15,78,12,-13,1,-10,-1
0,-22,-40,-48,2,2,-6,-5
-19,-46,-75,-5,-62,12,23,20
4,38,41,0,35,7,-13,-6
-22,-27,-40,-41,-48,-13,16,-4
-10,-3,-12,55,51,7,6,-11
32,42,79,-31,-26,-2,20,6
-4,-3,-34,-66,-44,-14,-17,-16
1,-81,-22,76,71,20,17,14
3,23,15,-19,-10,-8,-18,-1
-40,-13,1,29,30,0,-14,-30
20,-28,32,20,-21,0,46,3
-21,12,33,-52,-33,-18,-74,-16
10,2,36,21,-3,-3,17,29
11,16,-36,-17,8,6,7,10
-1,-32,9,-44,-22,-15,-12,2
-5,30,-17,64,36,12,26,-3
-32,-26,-94,-12,8,-3,-46,-20
-5,-2,-18,-56,-42,-21,-2,-5
-18,-2,63,73,10,8,-2,-10
1,-23,-14,-14,-17,-5,9,4
15,10,-43,-11,-25,2,-4,-15
6,19,84,40,82,31,94,32
-10,53,-16,-21,-37,-33,-94,-31
-2,-2,-4,-10,-6,0,-5,8
13,-34,12,23,36,-1,-7,-3
-6,50,-29,24,-47,-2,-8,-30
13,-38,28,-2,31,25,50,49
12,57,-19,-16,-20,-18,-9,-7
-22,-19,-35,-25,-5,-7,7,1
-8,-45,9,-43,-33,-16,-36,-17
-15,11,-6,25,39,6,-1,-16
10,9,-70,-23,-32,5,10,4
19,35,21,8,14,23,14,23
12,43,42,47,2,-11,-34,-11
-41,-71,-69,-17,-51,-8,-26,-34
-7,13,-5,-1,14,-1,1,1
17,3,3,8,-30,7,20,-3
7,-43,-7,-17,-10,-12,-28,-10
20,30,32,-16,-6,6,82,26
10,64,23,12,2,-20,-66,-20
-35,-31,-66,-17,-21,-19,-29,-16
6,-5,-37,17,33,-2,-21,37
14,-24,-53,-24,-12,2,-24,-14
-2,-20,24,7,18,10,43,13
-26,-45,-35,-51,-45,-3,-1,-18
-11,47,-13,48,1,-15,-12,-13
-7,-24,-43,-24,9,13,-7,-6
-1,-33,16,2,16,1,-2,0
23,46,91,74,59,21,14,21
-2,48,-33,-81,-23,-4,2,-10
17,38,89,31,14,6,-1,16
-20,-51,-55,-61,-13,-19,25,-41
18,3,45,39,-9,-2,-32,42
0,-25,-38,13,0,-1,-2,0
18,-10,13,19,4,5,13,14
7,34,31,-8,8,14,15,6
-1,21,9,-51,-32,-19,21,-32
2,-36,-47,46,55,27,-16,10
-3,7,-26,2,0,-18,-28,-8
12,48,97,47,-23,4,37,33
-27,-21,-34,-107,-44,-14,-7,3
11,-26,-5,7,30,0,17,1
-22,58,23,34,-15,1,-23,-16
10,-63,-90,42,6,-1,-29,-9
-3,-5,73,17,-12,8,32,-2
-7,32,100,-8,-8,12,20,1
23,33,-114,-4,34,-6,-30,-5
-28,-89,1,-18,-17,-8,24,0
-3,4,-26,-21,-22,-16,-56,-23
20,47,50,17,46,21,73,30
-34,-71,8,-44,13,1,-52,-28
27,85,11,-16,-67,-15,-21,28
16,17,24,46,23,-2,32,7
6,-18,-21,31,35,12,-25,-40
3,-1,37,0,-21,6,49,37
-35,-52,-5,7,7,4,5,-27
30,55,60,0,16,10,-5,20
-3,-15,-64,-29,-22,-18,-28,-5
-38,-61,-37,-33,-36,-3,24,-25
12,81,-35,8,-7,-6,-29,-16
-23,-53,52,36,34,-2,-26,3
26,13,-28,3,-48,-5,8,22
11,60,76,-16,-14,-4,1,-11
-14,-19,33,-23,0,17,82,14
-11,46,-60,-25,-9,-21,-88,-29
15,-70,-97,-43,-32,-12,15,34
-14,18,1,54,17,-10,-1,-12
8,-18,-52,-49,1,-2,-23,-11
-5,9,-22,82,97,26,39,-2
-3,-13,-57,-7,-14,-5,-18,7
-19,-11,-49,7,-2,-3,0,39
20,-10,-32,2,-6,-21,13,-5
-5,-17,14,-14,-41,11,-12,-2
-25,5,57,4,40,9,74,-23
-8,-20,-96,-6,46,-5,-89,-20
14,32,35,11,7,-2,-1,-13
13,63,6,-29,-60,7,1,-1
-34,-28,51,32,38,-4,10,-7
17,-45,-23,-4,-18,-1,34,28
-7,-1,-40,-47,21,5,-13,15
-12,-12,4,27,12,-13,-17,-22
21,71,111,27,6,6,0,-6
47,-27,31,-4,-6,1,18,-2
-20,-25,-43,-39,-4,-9,-18,1
26,14,-15,29,23,25,49,24
-33,-106,-101,-19,-33,-7,-41,-22
-4,69,98,-17,-3,14,12,-40
16,40,4,53,26,18,-10,46
-6,-80,-8,-49,-47,-15,53,5
-28,-40,11,37,-27,-19,-56,-10
17,20,-59,-7,30,4,14,12
4,30,127,85,4,4,12,-43
-5,21,-1,-78,-16,-10,-28,-9
8,22,-68,-25,-47,-23,-10,18
-27,-21,-3,28,49,22,11,-16
-18,-71,-84,-1,9,13,-8,6
58,28,-2,51,12,9,40,31
-42,-9,-64,-44,-40,-20,7,-42
17,-29,-11,-18,-16,3,-32,10
-5,-3,-57,-18,-13,-19,3,24
-29,36,-9,11,31,4,-25,-7
29,-19,-47,4,-7,-4,-5,21
-8,84,71,11,8,0,37,12
-53,-1,-27,-39,-18,-3,-24,-52
29,38,100,-4,-102,-37,-44,-19
6,-1,89,-6,75,13,-3,-6
17,42,49,-30,-24,-17,23,21
-24,-66,-15,-8,2,2,-11,-14
-6,52,37,-19,-2,-7,28,-10
-5,27,84,-11,4,12,-44,0
-25,-105,-128,32,-78,6,97,-19
9,26,78,31,28,-30,-85,0
21,-19,-78,12,59,11,47,31
7,-7,33,38,-7,0,24,-18
-30,-36,-96,-65,-12,-25,-47,4
-19,-18,116,31,-4,18,34,-34
9,-44,-76,-26,13,10,9,24
-1,20,43,24,-6,3,22,0
-4,-42,42,-40,-11,0,2,33
19,62,-4,-33,-48,-6,0,-14
36,41,-19,80,87,14,6,23
-13,-20,-95,-125,-33,-1,-5,-11
16,24,49,-8,-4,-6,-34,8
20,-6,-59,27,58,25,27,28
-30,10,-54,-43,-54,-6,0,-27
-13,69,85,74,21,17,23,1
4,33,-96,24,34,-3,-54,10
17,-15,-30,-69,-59,-32,2,-1
-26,-41,11,2,3,13,-1,-27
-2,67,21,4,15,-10,13,-33
-44,-82,-70,-28,-7,-6,22,52
85,74,52,21,23,5,-33,11
-47,-31,8,-20,-22,-15,8,-21
-8,-1,32,7,-11,2,-68,-50
18,7,37,81,47,20,20,56
-33,-57,-84,-28,-24,-30,-10,-11
-33,-29,33,-38,-7,-3,-5,5
15,8,-14,-7,7,-1,12,3
-6,68,69,-11,-48,-16,-29,-37
20,22,87,63,53,25,23,7
6,36,42,35,9,-3,-41,-48
-12,-54,13,6,12,14,10,70
-5,-37,-33,5,-6,-12,2,-28
-71,-22,-101,-92,-42,-3,-1,-57
83,67,73,71,-11,34,51,68
-14,-13,-37,-42,-8,9,89,19
29,17,68,-41,7,-23,-84,-8
-21,72,94,12,26,7,25,49
-97,-108,-128,-75,-35,-26,5,-98
56,68,26,6,2,-12,-14,109
72,54,-7,-30,-4,10,42,-43
10,15,104,42,6,5,6,54
-38,-50,-21,-3,11,0,52,-56
5,-32,-61,-72,-53,-33,-101,-19
-58,-76,-99,84,-1,26,25,-17
34,11,23,-22,-75,-9,-9,2
-4,36,83,50,-2,7,12,45
7,23,-24,8,30,1,-1,-109
-12,-33,42,-16,-24,-10,45,40
12,51,26,13,4,-5,14,53
12,-28,14,-3,11,-10,-19,-6
-11,-34,-67,-56,-39,-26,-16,-14
-15,26,40,3,11,3,0,-47
-10,-45,-11,17,20,15,-2,-20
15,-21,-5,-17,11,37,15,41
9,0,-53,7,1,10,12,16
0,3,5,1,3,-12,-15,-31
4,-31,20,-2,3,-9,8,-10
15,-30,-122,-7,-1,-3,-34,24
-1,9,33,24,4,13,29,11
14,55,-10,9,-5,4,-6,6
-15,-38,-30,-27,-28,-25,-22,-9
2,16,36,16,6,-10,-1,5
-8,-36,8,11,-2,0,-4,-4
-6,9,16,-23,-7,-25,-21,-16
6,-4,-36,8,15,25,26,-1
-6,11,-25,-16,0,-10,-28,-10
-7,-25,13,9,-15,-50,-12,-11
5,23,-26,4,-11,-23,-62,7
2,2,-44,-16,12,17,45,0
10,16,71,24,7,3,-4,16
-2,-22,86,43,0,27,26,-7
6,-44,48,-6,-4,-11,6,-9
-9,-53,-81,-4,-4,-11,-18,-13
7,3,-45,-41,-3,-11,-4,12
2,32,-44,-19,-5,-13,-8,5
3,33,-64,-19,11,13,17,-8
2,-14,-36,-34,1,7,1,3
1,-11,18,69,15,-2,-13,0
-8,-38,-68,-13,-13,3,-9,3
-5,-3,30,14,28,22,21,0
-11,-31,-46,-64,-23,-4,-10,-7
-4,17,93,47,-14,-17,-10,-3
-11,-12,12,25,3,3,-4,-3
-6,3,-44,27,12,-7,10,16
-8,6,65,56,0,-2,-16,-59
-28,-7,-84,-36,-31,-25,-11,-29
57,36,32,-31,19,69,26,60
-5,-2,-9,-16,-13,9,14,4
16,7,26,31,15,-24,-15,20
-7,19,-24,-55,11,-27,-25,-46
-20,0,52,80,27,56,36,13
-6,-25,-28,-110,-8,-4,-9,-9
-1,-7,-47,-39,-10,4,7,2
-8,-7,-7,28,0,-8,-5,1
-10,12,-14,-57,-20,-36,-18,-6
3,14,43,-8,-8,6,4,0
-7,-2,3,86,9,-1,3,1
17,3,-70,-3,-1,-1,-1,14
-2,-15,-65,-76,-1,-9,-11,-3
9,-9,-42,25,0,12,3,-3
5,15,54,-23,-2,-6,-11,3
6,4,-11,-40,-4,12,10,22
2,19,74,104,18,-4,3,-7
-5,0,26,8,-6,-7,-5,-10
2,9,-24,-11,-9,-2,-3,3
6,2,6,-29,6,11,13,11
-9,2,-2,-31,-15,-16,-5,-9
-5,13,51,69,12,-5,-7,-4
0,-12,-92,-90,6,6,-9,1
4,6,14,5,0,0,-10,-4
-4,-4,49,79,-10,-12,-11,-17
-2,-3,12,30,-15,-1,8,3
-3,-8,-18,-26,-9,-4,6,6
-3,-7,-5,-20,-8,-5,-2,2
-7,-8,-9,-5,-8,-16,-4,-4
3,-2,-22,-21,0,12,3,-5
2,6,12,19,1,1,9,-2
8,6,27,6,9,3,5,4
8,1,-31,-1,3,-5,2,4
-1,-4,15,-34,4,-6,-2,-8
-4,-1,-6,39,5,0,-2,-1
-4,-2,5,-70,-1,-3,-13,1
-1,-11,-8,-7,-9,-4,-9,1
-2,-4,-42,-28,-2,-4,-8,0
-2,7,49,76,31,9,1,2
1,-4,-9,-9,-7,3,0,0
-8,-5,0,-26,-11,13,12,-4
-1,-10,-21,-27,-25,-13,1,-2
6,1,36,47,31,17,10,2
2,-7,-43,-9,-10,-2,6,-1
1,0,-12,-23,5,-11,-7,-10
-1,8,32,29,2,0,-6,-2
-5,3,16,19,-15,-6,-6,-3
-1,0,-7,-58,-11,2,-3,-1
-3,-8,-25,-8,-4,-9,-5,0
-4,2,13,15,6,-3,-1,2
0,-3,4,42,2,-6,-3,-1
0,-5,-9,-29,6,0,1,2
-3,8,10,-35,-6,-1,-4,-4
2,2,-53,5,3,7,-2,1
-1,-3,34,7,-10,-5,-13,-6
6,-2,-7,10,-9,-1,-7,-1
4,-6,-11,8,2,1,-3,-2
-3,-2,23,32,-4,-2,-2,-4
-4,7,11,-12,-6,0,2,1
-5,6,6,9,12,-2,5,3
-3,-6,-17,-20,4,-12,2,1
-2,1,-3,-10,6,1,13,3
-6,-7,-7,-31,-6,-9,3,3
-1,3,49,57,-9,7,2,-2
6,-6,-3,-9,-1,6,-2,-6
4,-4,12,14,-3,-8,-9,-6
2,-5,-40,-10,0,-6,-6,0
-4,-2,15,-6,-22,-15,-1,0
2,6,-3,38,48,19,3,3
-3,-6,-21,-13,-3,5,-5,1
2,-1,2,-8,-8,-1,-6,0
-4,0,-14,13,17,3,1,-1
-4,4,1,11,-13,-8,-4,-1
1,-1,15,-37,-2,3,14,-2
-4,-7,-22,-30,-9,2,5,-2
-1,3,19,17,-3,-6,-4,-4
-1,-8,1,-12,-8,-8,-10,-1
2,3,14,17,6,14,2,0
-4,-9,-21,-26,-2,-9,-3,-2
0,-1,4,17,12,-9,2,-6
-3,1,-1,12,-1,-3,-8,6
-1,4,5,0,0,-5,-1,0
4,4,4,4,-1,1,-3,-3
2,1,-17,-32,-3,8,-2,-2
3,0,9,11,-6,-9,-2,-4
1,-4,17,6,0,-6,-7,0
1,-2,-52,-15,-3,0,-2,2
-5,-3,-11,-17,-8,-7,-8,3
-11,-5,-19,-6,4,1,4,-4
-10,1,-6,12,-13,-1,3,-3
-2,6,16,20,12,3,15,0
-1,2,-7,-28,-22,-4,-3,0
1,1,0,23,-7,2,2,-2
2,-2,-18,-11,11,-6,-1,-4
-2,-4,-11,-66,-6,3,3,-3
-1,-7,6,29,5,6,-4,0
-4,-4,-3,-8,-4,1,-23,0
-9,0,3,-3,0,2,-10,3
2,0,2,7,-11,-10,-5,-1
7,-1,26,27,8,-14,-5,4
4,2,0,-46,-10,3,15,-5
1,-2,-5,3,0,2,-3,-4
-4,-4,-3,-10,-8,6,3,-3
-4,0,5,12,12,8,2,-2
-1,-3,6,12,-4,-7,-9,0
3,0,27,7,15,-4,-1,1
-3,-8,-48,-48,-7,-6,-3,-5
4,0,18,44,10,8,-1,-3
2,-1,-31,-28,-8,-5,4,1
-2,2,-6,12,0,-1,6,2
-1,7,33,25,6,-2,-5,2
-5,-5,16,31,-4,-3,-3,1
-2,-7,-39,-44,-8,-2,0,-5
2,-5,-7,-6,-11,-1,1,-5
1,3,16,29,0,1,-3,0
2,10,-6,-13,3,-2,1,-4
-3,6,16,12,7,-5,-9,-4
3,-1,-3,-15,2,12,4,5
-1,-3,7,9,-6,4,2,1
-7,2,7,10,-9,-1,6,4
-2,-4,1,51,-2,-3,8,6
-6,-6,-11,-35,-2,-3,-8,-2
1,-3,2,16,7,5,0,-4
1,0,1,4,1,1,4,-6
2,-1,-11,-42,-10,-5,2,-2
2,-3,-40,-46,-26,-10,-5,0
7,3,37,63,34,10,0,4
3,-4,-1,-13,4,-9,-7,-4
-1,1,-5,-11,-5,4,3,-2
