62,-50,12,-26,-12,-8,29,60
-12,17,15,31,-48,1,43,-3
-4,-15,-57,28,5,-17,-65,-17
-1,24,14,-29,2,2,7,0
-25,32,67,-1,-15,-18,-9,-29
43,54,-92,3,39,21,-3,11
30,-21,38,31,-23,2,4,-5
-11,20,-38,-35,25,6,-10,-20
-52,-27,66,-7,-18,-18,-18,-27
42,8,0,17,15,23,95,48
-2,15,31,-31,-9,4,-38,10
-3,3,-91,-54,-13,-9,-12,-5
9,10,-21,-23,3,6,-58,-23
-35,-58,-35,10,-23,-25,5,-5
5,24,-5,-7,2,1,29,6
19,-29,-3,-27,-42,3,24,6
15,58,-9,27,25,-10,-59,-17
-38,-81,-114,-24,11,3,18,-6
42,71,72,62,37,20,24,17
-5,-51,-64,-76,-12,10,50,6
46,88,9,55,15,3,-20,38
6,41,73,-68,-28,-5,-32,-15
-66,-90,58,-42,-36,-27,13,-41
20,57,28,78,29,10,-26,20
-32,-26,17,40,45,0,-5,0
19,45,53,-14,-1,-3,17,-14
-52,-2,-29,-62,-35,-15,-40,-34
40,31,53,35,2,7,27,3
-9,-41,-68,-53,-29,-14,-13,31
-5,-13,-42,4,42,16,-6,-1
3,-34,-115,-61,-42,-26,-9,-11
11,18,43,60,27,-2,-20,-6
-13,-20,-14,-36,9,2,-5,-22
47,29,27,-4,-78,-11,-4,22
-5,-87,-47,87,105,28,12,-5
12,-21,-27,-41,-47,-17,3,7
-1,91,54,23,12,11,-22,-17
-37,-118,-34,-14,-17,-20,-10,-9
-6,27,43,-44,-41,8,4,9
-6,-29,-60,-1,-7,-3,1,2
-42,-31,-26,-4,24,4,0,-22
29,46,91,-1,-3,-11,7,8
51,84,23,59,36,70,3,16
31,73,13,-18,7,-10,16,25
-26,-88,-89,-10,-36,-3,-4,-11
-40,-15,-18,-43,-12,-10,-17,-13
-6,-40,-33,63,51,0,81,9
10,29,89,-12,-14,20,-34,22
35,-3,25,86,51,3,22,8
-11,3,-35,-50,-26,-18,-18,12
-9,-43,-6,-14,-1,-13,-11,-12
-38,-66,-103,-19,11,7,-8,-31
-11,-4,66,-21,21,0,15,-2
-6,21,55,70,-9,-6,-42,-13
-18,-75,-109,-80,-22,-5,-3,1
-13,-25,-51,-61,-37,-4,40,-20
-24,-29,1,33,35,11,-58,8
23,38,15,-3,29,-13,9,18
16,-8,-49,18,-24,5,-14,15
22,71,81,54,33,37,39,20
-10,-37,-33,-63,-50,-19,-2,-80
-17,-8,-67,21,56,20,30,38
13,65,39,57,10,-19,-12,23
-7,-105,-77,-46,-66,-24,19,-3
-1,41,-31,-128,-76,-35,-55,4
6,-2,62,88,89,33,-11,-44
28,52,31,8,-112,-17,36,33
-1,-42,-62,86,105,10,-54,0
-4,47,41,14,-22,2,44,2
-50,-100,-68,-71,-33,-23,-79,-39
12,-8,-30,8,-1,2,42,36
-24,-41,13,-61,-20,-7,-17,-22
4,63,99,106,17,3,14,-21
40,5,-52,-43,-25,5,11,7
-30,-31,-4,-59,-4,-20,-78,-40
-11,35,78,42,-18,14,47,24
8,-27,-7,8,15,-5,-59,-12
12,79,25,-50,-54,-23,55,-4
5,-33,16,35,24,19,56,25
-4,-26,-24,9,68,-2,-25,-24
26,30,-37,37,2,22,9,14
-58,-93,-10,31,7,-6,-36,-21
35,13,-69,-23,-3,7,5,14
5,76,-13,-55,-13,-9,41,-2
-38,-49,-42,17,17,7,-17,5
38,-45,11,76,14,-7,1,34
-33,82,72,-19,-9,-7,9,-9
-16,47,21,-42,-24,-22,-26,-25
21,-30,-40,-28,-68,3,0,-25
-26,27,28,6,34,37,97,51
57,12,16,-2,-11,-18,-67,-19
-33,36,12,66,17,5,-6,13
18,-4,-70,-128,-58,-24,-3,-6
47,55,1,67,3,11,32,33
-35,-93,-3,-7,9,14,62,14
-9,45,-12,18,-12,-32,-73,-35
-8,-74,-109,-28,2,38,48,25
-32,-12,65,40,59,-13,-66,-73
12,74,61,-17,-52,-7,19,40
34,-24,-73,-14,17,-1,-12,19
-13,20,99,25,27,-2,20,9
-18,-6,-14,-3,-42,-1,11,-30
-19,95,20,-21,-14,-10,-50,-15
23,-74,118,9,-14,2,50,39
-11,-30,-48,51,32,10,60,-9
1,49,-24,-103,-45,-16,-89,-65
6,50,32,97,52,3,-2,33
-1,-20,23,-57,-50,-6,-24,4
9,53,67,-13,38,16,51,16
-5,-44,-10,29,-22,-13,-13,4
26,-24,-58,-56,11,13,12,-23
-25,-55,32,72,6,-10,-32,-27
1,68,12,-15,-13,-1,72,-11
-126,-124,-30,-128,-79,-58,-109,-83
83,12,-24,107,101,52,82,69
-80,-68,-102,-47,34,11,54,-15
21,98,95,70,20,-3,-22,2
41,-12,-128,-23,-10,-12,-23,-8
-56,-29,-100,-123,-51,-36,-37,-89
-17,20,53,25,-37,-3,-45,-4
7,3,-42,-37,2,8,78,41
52,13,119,61,38,33,-4,62
-43,-36,-13,-72,-41,-12,14,-2
4,13,39,37,-16,-6,-37,15
3,-63,-51,-65,-20,-21,-42,-30
-47,36,35,37,-2,24,95,-28
-12,-26,5,-11,-10,-31,-112,-79
63,56,20,49,14,14,46,64
-33,-91,-71,-15,11,-15,-6,-6
6,45,-31,-58,-22,-4,-24,-36
-29,-38,-15,102,103,39,-17,36
35,114,88,-33,-91,-16,19,-35
-76,-56,-104,20,5,4,-11,3
100,94,-27,-5,94,48,43,99
16,111,127,75,1,2,76,-12
-60,-113,-102,-57,-11,-33,-118,-78
36,97,93,5,-5,-16,-41,59
-113,-6,21,-45,-62,-22,66,-25
56,-12,-5,-45,-25,-14,-44,-20
0,-46,-90,96,85,51,127,81
5,19,-38,-81,-21,-32,-128,-89
0,-109,-86,18,-9,12,22,38
-44,49,34,-50,-34,-24,-15,26
44,49,24,62,52,26,88,-38
-41,-104,-58,-2,15,20,-60,36
30,26,127,61,0,-10,82,-5
-91,-45,-120,-38,-62,-43,-74,-110
44,82,-46,-48,-73,-7,-34,66
63,-78,-7,118,56,30,69,101
1,-8,-13,80,11,4,16,5
-60,-58,-32,-83,-41,12,95,-61
5,6,78,-29,8,18,69,-17
17,50,7,-2,-13,-26,-12,-26
35,67,52,79,39,8,-90,-32
44,-29,-64,-53,-12,-28,-43,41
-51,-87,14,-2,12,19,-21,4
41,35,-2,-22,-10,17,36,-1
21,75,73,17,17,-2,21,6
-43,-64,19,3,9,30,-23,-11
33,-15,43,-33,8,-32,24,21
-4,42,105,36,11,12,98,35
-47,-118,-128,-128,-76,-60,-102,-75
-34,30,-10,127,55,37,94,-43
107,46,15,1,11,-20,-90,96
-60,-110,-86,-75,-31,-3,-27,-53
-91,-1,-74,-37,-17,-9,-63,-73
83,-100,-58,-53,35,1,35,61
-6,30,5,17,-39,3,50,66
-48,-28,-64,-80,1,14,19,-87
9,-42,28,-57,-44,-39,-92,-22
41,36,87,71,22,-7,49,66
-22,53,-1,-46,15,-4,-44,-38
-48,-70,5,-8,-14,23,72,-67
23,94,78,-8,-26,17,127,61
18,21,34,16,54,-13,-122,-7
-63,-45,-81,-66,26,11,24,-42
-4,87,82,-42,-60,-54,-16,-94
36,50,50,57,25,51,-65,100
53,57,47,62,3,-9,38,22
-37,-55,-49,36,-5,-5,-5,-54
-78,-77,-86,-23,-17,-29,-41,-110
17,19,-83,-6,-14,13,121,68
1,-76,47,-79,-95,-6,33,-36
46,69,80,127,70,33,48,44
22,46,76,67,-31,-17,46,-2
-21,-115,-90,2,36,23,72,-58
-14,33,14,-15,-19,-11,9,37
-22,38,-41,-94,-37,-5,91,-69
-7,63,77,98,28,21,-116,18
83,-47,48,-6,-8,-27,-23,60
-30,13,-37,-72,-4,-12,0,-39
28,14,92,33,4,2,-61,18
5,-43,-61,70,20,-6,3,99
-92,-30,36,-68,-5,6,-15,-107
22,10,-73,-66,-8,-28,-91,-96
-5,15,-41,-42,-88,-49,-50,-14
94,61,25,61,87,100,56,105
3,-16,2,12,-8,-20,19,75
-24,-13,-72,10,-36,9,56,-15
-86,-62,-70,-114,-25,19,85,-128
78,89,127,17,-16,-3,-17,68
64,48,58,25,11,-15,-15,31
-50,-45,-76,34,25,17,0,-6
-3,-36,61,66,10,-21,-59,-77
-60,-52,-128,-85,-20,66,69,-1
59,28,21,-11,-10,-33,-106,-107
33,-28,18,-12,-49,-24,93,89
-31,-79,-85,-9,15,-15,-27,-75
11,32,102,76,-4,-31,-6,-51
-43,-23,17,-14,-3,11,-9,-42
-20,14,53,5,10,11,-84,-13
40,-28,-100,39,45,10,-57,61
-54,-23,17,-97,-72,-52,51,-73
-59,1,-69,86,1,14,-67,-45
78,8,76,98,48,7,-37,71
-13,75,22,-24,-19,-1,53,-29
-11,-5,-44,-54,-14,-21,-36,-29
-33,-28,-84,19,-4,0,37,-48
-9,31,41,-87,-29,5,60,-8
22,-12,15,52,12,14,-35,49
12,18,35,-12,-5,-38,-25,-12
-13,-49,-48,-45,8,9,3,-2
-13,4,55,61,27,27,24,-12
45,29,69,-11,-9,-2,-2,55
-8,-43,-101,-48,-23,-45,-26,-12
-10,-16,-30,10,20,17,36,19
-120,-61,-53,-54,-33,-3,78,-128
82,-43,-50,35,20,-9,-55,77
-2,-19,-6,8,-7,-2,34,15
11,48,27,-31,1,-8,39,-21
-45,-58,-77,20,-2,-3,-15,-68
-43,28,16,-29,-28,-4,16,-64
28,20,-7,14,14,-4,-23,19
7,9,17,-25,-2,15,41,23
6,34,21,-14,-13,-4,-45,-1
-16,-8,-16,-14,-14,0,0,-6
33,-2,44,50,5,4,-3,40
-11,-20,-57,-9,2,0,2,-25
-13,9,26,12,6,-24,-30,14
27,17,37,14,22,13,-10,-13
2,16,34,25,31,61,45,16
7,-1,-37,-87,-23,13,38,43
18,11,17,91,15,1,-10,15
-30,-14,-19,-16,-33,-35,-4,-20
-7,8,23,-49,-9,-34,-27,-10
11,23,86,45,7,-8,9,13
10,33,-23,-51,-4,19,-1,-1
-35,29,-41,-39,-23,-8,9,-29
7,58,-17,36,1,-2,-6,-1
-2,51,-7,39,2,-3,17,5
-22,-52,-66,-57,-7,11,-10,-61
15,-28,52,48,12,3,19,44
36,-80,-72,-10,4,-5,-6,40
-7,-75,-64,3,10,-11,-7,-7
-25,-43,-65,-7,-10,1,48,-69
9,29,1,-17,-6,3,-46,40
3,-4,19,19,5,10,15,25
2,24,57,-7,13,1,7,15
-2,-27,-6,43,11,-11,-4,10
-37,-13,-36,-27,4,-15,-29,-61
-14,30,27,-70,-70,-13,-5,-22
11,9,10,85,85,34,33,35
33,9,53,-13,7,-5,-20,18
-14,-12,-15,38,1,-2,14,-16
-8,4,20,-8,-7,-19,-22,-6
-1,16,20,-23,-26,0,-1,-23
13,46,78,44,-1,-2,-10,26
-4,-14,-51,-10,-7,6,-3,3
3,2,-4,14,13,23,27,-15
-3,20,1,-47,-27,-10,-13,-18
-1,9,76,23,-5,-16,-12,35
7,-35,25,2,-14,-2,3,-35
-5,14,-80,-1,12,-6,-13,-6
-3,-21,-110,-38,-13,-16,-11,0
1,5,-116,-9,8,-1,-5,25
-9,7,1,-3,7,7,28,-8
-8,-18,95,-20,3,-10,-12,-12
-7,-23,105,63,3,-2,-5,7
10,23,71,27,-9,5,-10,11
1,-9,-63,-85,-13,0,-4,-5
-10,-14,-18,30,13,-2,-15,-13
0,11,29,45,-15,3,5,-3
-3,3,21,-90,-2,-16,-14,-12
-22,-9,25,115,-9,22,11,-43
23,7,79,-24,2,5,-11,38
-5,-21,-62,-102,-30,-11,-9,-23
-10,-12,-28,-26,-7,9,-8,-12
60,34,76,58,21,-7,25,92
-31,-25,-5,-38,-15,1,-3,-31
10,-8,-53,-39,0,-8,0,18
-8,2,-23,6,0,2,-8,-24
-25,-2,1,-10,18,1,7,-15
2,14,8,50,13,5,8,-7
11,11,23,-10,10,3,1,13
-5,-1,-3,11,-9,6,-3,9
-7,9,38,-22,-10,-3,-10,3
8,3,-83,-20,-10,-7,-5,-6
-15,-10,72,50,-13,-7,-4,-21
3,-10,-62,9,5,0,4,6
-9,4,58,29,6,1,7,0
-9,-2,-46,-1,-14,-22,-15,-24
16,5,26,9,1,19,8,20
0,14,1,11,12,-1,14,11
4,-1,-18,-5,-3,-3,1,-2
-5,-8,-108,-60,-5,-4,-5,-3
0,14,17,10,3,-10,-8,-8
8,-9,-3,0,0,5,-1,10
-19,-9,-26,-18,2,4,-1,-18
-2,5,26,25,-1,-6,-3,-4
-2,9,-45,34,5,4,1,5
-1,-6,26,24,2,-5,-1,4
-7,-4,-11,-19,-5,-8,-12,-6
6,9,74,65,10,12,2,6
-1,-3,-38,-41,-6,-1,-12,-2
1,8,11,-2,5,14,16,-2
-4,-1,3,12,7,-13,-13,-6
-3,3,51,4,-7,-2,6,2
-13,-24,-77,-2,-7,-12,-6,-13
7,14,44,24,3,9,12,0
0,-21,-47,-73,-7,-4,12,20
6,3,-16,-24,3,2,7,-18
-5,-2,51,20,-3,-10,8,-2
1,-5,-56,-26,-10,-7,-9,1
1,11,16,-4,-7,3,-5,-1
-8,-14,-50,-2,-5,1,-1,3
5,4,5,-4,-6,1,-1,-6
9,6,16,28,24,7,-7,5
1,0,1,-8,9,10,-1,-8
6,5,7,11,-11,1,1,7
-5,-3,33,-27,-2,0,3,-4
-4,-7,32,32,-1,-9,-2,-3
-5,-9,-28,28,0,-13,-13,-12
5,7,45,-25,5,23,1,6
-3,2,-7,10,1,-17,-7,1
2,10,14,-31,-3,12,9,2
-4,-2,8,31,-1,6,10,-6
-6,-8,-2,52,12,-3,2,4
-7,4,18,-25,-22,3,-3,-1
-1,-1,-13,-32,-8,-10,-11,-1
2,-8,-6,-6,-3,-4,3,-2
1,0,-1,-8,15,-2,-5,-1
3,-10,-23,15,12,-4,-3,5
-5,0,14,28,-4,-12,1,-4
-4,5,-28,-28,4,-3,-2,0
-8,-8,-18,-50,-5,-12,-7,-4
-7,-7,13,71,15,0,-2,-3
-4,-9,6,-12,-7,-3,-12,-2
3,2,1,-31,-14,9,7,-3
0,9,12,19,-3,1,1,-4
-3,-3,1,-25,-11,9,6,-2
0,-1,-16,0,-4,8,-1,0
3,-1,-4,2,-2,-6,-9,1
2,-8,-7,-11,-10,-25,-12,-3
5,7,1,-11,6,18,13,2
5,6,10,20,-3,-19,-5,4
-1,-1,-42,-38,-1,-3,-2,-6
-2,0,-10,7,4,1,3,2
-5,4,14,3,-1,0,0,-4
-3,0,1,-29,1,7,3,-4
-3,-3,-17,1,-5,0,-8,0
4,11,27,26,11,3,-6,4
1,-2,-16,-50,3,-2,-10,1
-8,-7,-33,-39,-13,-1,1,-2
2,0,10,2,-1,-3,-1,-1
1,2,15,39,-4,-6,1,-1
-3,-16,-50,-49,2,-2,3,-2
1,0,5,-11,-14,-5,-8,-2
-1,-3,39,77,21,5,-4,0
-1,3,-12,-58,-12,1,-6,-3
-3,2,7,15,-1,-7,1,0
-2,-15,-24,-16,-5,-4,2,-2
-2,-4,-25,-5,-8,0,12,-4
-2,-7,7,6,4,-8,-13,0
3,10,24,29,4,14,13,6
0,3,-29,-12,4,-6,-6,-4
-6,5,14,4,-6,-4,-4,0
1,-3,-3,-4,7,-4,-2,-1
-4,-8,-20,-22,1,4,-10,-2
-3,8,20,28,8,5,0,4
-1,-2,14,1,-2,0,2,1
5,4,-9,-8,-5,5,2,2
-3,-10,-6,4,-12,-11,-3,-3
-1,3,-22,-9,-1,-3,6,-4
-1,3,-1,10,-5,-7,0,-5
0,-3,10,25,3,2,5,-3
5,3,-2,-8,3,-6,-3,-4
4,2,26,23,6,6,4,-2
-3,-4,11,-8,-3,-3,-6,0
-4,0,-19,-33,2,2,8,0
1,0,16,16,6,-1,-3,-1
-1,-7,8,-14,-3,-6,-7,-1
-2,4,-7,-8,-8,4,1,-2
-5,-11,9,18,-10,-1,-4,-5
-4,-1,-6,-25,-6,-1,1,-1
2,0,13,46,10,12,4,1
-4,-12,-16,-58,-6,-6,-2,2
-1,2,-3,6,3,-7,2,0
1,3,5,4,-9,-14,-2,-5
-2,1,-21,6,2,-8,-5,-3
1,15,23,5,0,3,6,3
