-1,-2,10,55,-6,-2,0,-5
0,0,9,-25,4,-4,0,2
-3,0,-5,-30,-2,-4,-3,1
1,8,6,8,6,-3,-2,3
4,2,-4,1,-1,-5,1,-2
3,0,18,-13,0,-3,-3,-7
-2,2,18,19,3,-1,-3,-6
0,0,18,9,-5,-5,0,-2
-2,4,-11,19,4,-5,-3,2
-8,-5,-12,-6,-5,-4,-8,-4
-9,0,-8,16,9,0,-4,-5
-6,0,7,-12,0,-4,-3,-4
5,2,8,6,3,1,5,-5
0,-5,-2,-11,8,3,8,1
2,-1,-9,-46,-22,-3,7,2
1,-5,18,66,5,3,4,-5
-2,-4,-2,-44,-16,4,0,-2
-4,-2,-11,-7,-11,-3,-2,1
-3,-1,-2,-9,6,0,-3,3
-9,-6,7,26,0,-3,-5,7
0,8,-5,-27,7,-2,-9,6
5,-1,-10,-3,-8,-9,-8,-8
10,1,11,10,14,5,1,-9
4,-1,-17,4,3,0,3,-12
-5,-2,9,22,6,0,4,-2
-3,2,-2,-13,-6,-6,0,0
-1,-2,-18,-14,-9,-7,-5,3
4,5,-4,-11,-3,8,-6,5
-6,1,29,59,6,4,0,2
-5,-7,-4,-18,2,3,3,2
-4,-7,54,40,-5,-7,0,-2
-9,-9,-58,-70,-5,-4,-7,-2
-5,3,-10,-13,-1,-5,-8,-3
5,2,2,32,9,1,-2,2
2,-3,-9,-8,3,1,2,1
3,7,25,42,5,5,9,4
-5,-8,-7,-19,-9,-2,1,3
0,-4,-12,-16,-16,-3,-3,-5
1,-1,-18,-7,-3,-4,-3,-2
1,2,7,-7,-5,-4,2,2
0,-1,-17,-40,2,0,5,-6
-4,-3,24,28,-5,0,2,-3
-3,4,5,8,-4,-3,-6,-1
-1,-2,-18,-12,-4,-3,-8,-1
7,2,6,59,0,1,-7,-1
6,0,-8,-15,-2,3,-2,-1
-1,-2,-11,-4,0,2,0,-5
-6,-1,11,7,-1,-6,2,-4
-9,-6,9,35,5,-5,-4,-3
-2,1,-7,-52,-7,-6,0,2
-1,0,-12,-7,5,-1,1,0
2,-7,9,-3,2,-5,-2,1
6,6,-2,-34,-12,-4,1,8
-3,-7,-25,-10,11,-1,-3,-1
-2,-6,-24,-41,0,4,-3,-4
0,0,-4,-11,-2,4,0,-3
0,-2,9,11,17,3,0,-2
-1,3,14,-11,-20,-2,-2,2
-1,4,21,35,-1,2,3,2
-5,0,-7,2,5,-4,1,-5
-1,0,-14,-17,-13,0,5,-5
-1,0,9,22,0,-3,-3,-1
-1,-6,-13,-12,-8,-1,-8,-4
3,0,16,21,-4,2,-4,-1
4,0,9,-25,-1,-2,1,1
4,3,-20,20,10,-2,3,1
-1,4,16,18,-4,-3,1,2
-1,-5,-41,-68,0,-1,0,1
-4,-8,-4,-8,3,5,-3,-2
-2,-4,3,-3,-3,2,-1,-4
-3,-3,-3,-5,-1,-4,2,-1
-2,-1,5,30,-9,-10,0,0
-5,-2,-3,-27,15,6,1,0
-4,-3,-9,2,-2,3,-3,1
2,0,-11,38,16,5,3,-2
7,-1,10,-36,7,0,1,1
7,0,-12,6,-2,-7,-8,2
-5,3,39,45,6,-5,1,-3
-6,1,-19,-14,-17,-5,-3,-2
-6,1,10,11,-10,1,-6,-1
-1,2,-3,7,-2,0,-3,-1
-4,1,4,22,9,-3,1,0
-4,0,-3,-4,-7,-7,0,-2
-1,-3,8,0,2,2,-2,-4
1,-9,-11,5,-1,5,-7,-6
4,-4,1,-20,-1,4,1,-4
1,-6,10,15,0,0,4,0
0,0,-24,-8,-8,0,4,3
2,2,13,-3,-1,-5,4,3
0,-1,-19,-13,4,-3,-7,1
-1,-4,-10,-13,-7,-8,-11,0
0,-3,9,63,36,9,1,0
-2,1,0,-24,-14,-3,7,-5
-5,4,-3,-14,-11,-4,6,-2
-1,0,-3,-19,-2,-3,6,0
-6,-2,1,3,-13,-9,-8,-2
-4,-4,-15,-1,-2,-6,-8,-5
1,6,7,11,5,1,-9,-4
2,6,5,0,-5,4,-5,5
3,-3,4,-15,5,3,2,6
-5,-4,4,24,4,1,2,0
-10,-12,-9,-22,-10,-10,-1,-13
-1,-13,-7,0,-6,9,0,-8
18,2,10,1,-15,3,6,12
9,5,4,12,8,-1,-4,8
-3,13,11,23,19,-1,-8,-1
-4,-1,-13,-74,2,-9,-6,-4
-9,-2,20,10,-22,-7,-4,-7
2,1,3,0,7,-3,-3,2
2,-23,-29,-12,-16,0,-2,-6
4,13,15,16,14,12,16,2
2,-15,-11,-4,5,5,6,12
-9,11,20,-25,-22,-10,-1,-8
-11,7,-27,20,21,4,-1,-5
-5,4,18,10,2,-4,-10,-3
-14,-22,-20,-7,6,1,2,-11
5,4,-26,5,1,3,1,8
7,-5,10,-15,-16,4,3,2
45,-6,0,5,13,7,3,17
-12,14,8,24,4,-7,-12,-11
2,-11,3,-62,-14,0,-1,-2
-32,-6,-13,-12,-10,-3,-4,-8
16,34,4,5,1,-2,4,4
-19,-53,-10,-11,-37,-14,-7,-17
-3,25,19,39,14,3,2,-4
-3,18,25,0,2,-9,1,8
3,-17,-14,-11,0,1,-4,5
-7,-32,5,26,-14,-1,-1,7
1,22,-21,-44,-39,-12,-10,-11
64,12,9,50,25,7,1,19
-20,31,9,-28,-11,2,-10,-10
-15,49,22,-34,-22,-14,-12,-24
-19,-87,-33,-7,-18,8,3,-7
-17,30,37,36,13,-5,2,10
4,-3,3,-6,-20,-6,3,-3
6,7,-15,-10,27,10,3,4
-20,7,8,3,-21,-25,-5,-14
17,15,-4,6,43,21,11,8
-52,-51,-25,2,-1,-14,-11,-28
56,62,28,3,6,15,18,32
-35,-8,-23,-37,13,-5,-12,-27
46,-81,5,1,-44,2,-5,13
-13,5,-9,22,18,1,15,-2
-19,-44,-4,-11,20,15,16,27
19,94,30,28,61,7,-25,-8
-16,-55,-1,-37,-44,-1,-10,8
11,23,-1,52,62,2,-1,-19
-6,4,9,-40,-21,-21,7,-6
14,-22,-22,100,20,1,15,3
-30,78,15,-52,-33,-4,11,-2
-24,-69,-2,6,-25,-1,-9,-10
-7,-7,-25,20,-2,-3,-12,-10
49,1,-3,-21,-29,2,17,25
-37,59,9,-15,12,7,-29,-37
47,-51,-36,-36,-13,-11,12,58
-15,32,7,34,5,16,2,-18
-21,-37,-1,-36,-32,-9,-17,-3
10,11,-19,31,25,-17,16,1
-27,-27,1,-10,7,-3,-29,-44
24,-6,-15,2,-4,-23,-26,23
19,-24,-6,15,14,18,30,31
5,-13,-8,-34,-46,-7,-2,2
-28,19,4,37,61,11,13,-2
27,13,12,41,37,19,6,-14
-6,15,8,11,27,-6,-13,-9
1,6,3,-51,-50,-15,-10,-15
31,-21,16,-6,18,22,25,45
-26,16,-7,-40,-41,-14,-3,-12
30,43,27,22,51,13,21,30
-43,-118,-5,6,5,-5,17,-35
17,86,29,5,-6,-4,-37,12
9,-44,-18,-28,-29,-6,5,14
-23,-8,-35,-5,-40,-14,-14,-15
1,17,5,-5,1,14,31,3
-20,5,-14,23,-31,-35,-67,-19
17,-13,21,-5,-4,-5,6,-1
2,33,15,10,-9,14,5,13
-21,-24,-7,4,-35,3,0,-10
47,37,-24,30,-8,6,29,23
-38,-51,8,-43,-37,-6,-22,-18
-38,38,58,47,-17,5,11,-10
80,-26,6,4,16,-2,-7,30
-15,15,-23,-11,8,9,2,-11
-16,45,-1,-43,-35,-37,-12,-34
-6,-30,-26,-15,-12,4,-1,-2
-52,-56,-38,-50,-24,7,-20,0
-5,19,-7,13,-4,-8,14,-5
-23,-57,-17,4,-14,-14,-16,-16
-76,0,25,-6,40,-13,-23,-47
59,89,3,-16,-18,-5,-9,15
64,12,-16,-32,-36,-1,39,35
-1,30,-13,-44,2,1,-8,-21
7,-98,-15,-1,41,11,15,40
-3,55,33,77,58,12,11,12
-20,29,5,-57,-11,8,1,-13
15,10,3,32,-26,-4,57,7
15,-2,-24,-44,-2,-8,-54,-14
-44,30,-4,82,44,1,-8,-16
14,14,51,7,-16,6,15,10
-16,100,8,-12,5,10,-22,-2
0,-79,-82,-25,-26,-50,-19,-19
-79,82,42,53,36,30,13,-47
44,-76,10,-38,-15,-3,19,42
61,83,4,17,46,31,-4,28
13,16,-5,-27,-24,2,0,-31
54,-47,-37,-66,-19,-13,-11,42
-108,-70,19,41,21,1,10,-41
-6,15,65,-7,-14,10,-14,9
12,-6,6,18,-44,-5,-16,-1
-41,60,0,-49,-58,-31,-15,-5
64,26,55,43,-13,0,-23,-20
-114,-128,-75,12,4,-26,1,-20
69,120,32,13,38,30,34,39
-12,55,35,40,-15,4,45,-3
-43,-99,-97,-115,-20,-12,-52,6
-50,63,12,29,25,-18,-14,-26
40,32,39,55,19,21,38,64
-79,-59,-77,48,33,-6,37,-59
-37,-60,-74,-15,-81,-4,-68,-37
127,-44,22,58,80,24,-10,43
-38,56,7,-30,-40,-12,13,10
65,103,-61,-52,-20,24,43,20
-86,2,15,-82,-61,-40,-23,-46
3,-91,-23,1,-20,-29,-29,25
-55,-2,81,39,53,27,39,-33
99,53,57,55,73,58,-10,50
-78,-5,-43,54,-3,-19,-5,-22
49,81,34,-8,19,23,48,75
-59,69,-8,-62,-24,-14,-53,-72
78,-38,-2,-37,-68,11,8,57
-90,-24,-37,-70,-66,-31,58,15
67,46,49,74,86,60,17,38
-26,40,-10,33,15,-28,-67,-74
-26,-128,-100,-76,-57,-27,-77,1
44,126,112,85,22,-1,-17,-28
-110,-50,-13,-99,-31,7,26,-85
39,27,-68,-65,3,-2,61,96
6,48,59,60,71,-12,-28,-11
35,16,8,3,35,21,19,19
18,89,-17,79,-61,-6,-20,-32
-64,-66,-76,-38,9,-12,-23,-53
51,-127,69,88,-33,9,17,36
43,86,-72,-76,38,33,16,44
8,-36,-6,35,-1,0,-13,-24
-93,-128,-56,-102,-118,-59,-44,-39
31,119,75,-2,10,1,65,10
30,-113,22,42,4,-15,-39,-4
-15,74,-38,4,15,16,-10,32
39,60,82,23,6,24,72,15
-100,-102,-60,-49,11,-33,-53,-15
74,62,124,56,43,29,30,1
-12,-20,-54,-8,8,-10,14,0
4,-42,-60,13,-68,-20,-38,9
-34,57,-11,11,85,23,17,-17
-12,58,-13,-10,26,-6,-9,0
-33,-127,11,-28,20,-13,-14,-5
36,69,25,-36,-29,10,6,18
6,-34,-50,-65,-56,-21,-14,-21
-41,28,-23,88,96,26,21,5
3,36,0,-19,-13,-15,7,-16
12,-19,42,31,16,7,6,14
-23,19,15,-62,1,28,36,-47
-7,-74,23,-40,-39,-36,-66,35
75,101,77,40,61,20,35,28
18,-41,2,45,47,-13,-28,3
-20,2,-2,-54,-42,-11,-6,-11
-6,17,18,-15,-27,-22,-5,-40
-20,-51,-42,27,-6,5,-24,-20
23,-9,11,-11,5,3,7,26
-11,25,-1,14,22,14,-7,-6
-9,30,53,17,-13,8,17,-1
-9,-18,-56,-33,-27,-12,-3,6
5,7,19,15,2,-18,-8,-7
-17,-17,2,-2,-24,-3,-4,-8
3,-20,-7,1,1,-24,-7,-25
-1,-14,-34,23,-19,-4,-12,29
18,-3,-30,-27,24,77,51,30
2,-67,3,-7,-2,-62,-59,-20
-2,-10,-128,-9,-9,16,13,2
-5,30,-92,-7,-1,33,29,-21
15,10,-38,81,26,-7,-2,-4
-31,11,-35,-15,3,-18,-9,-38
29,52,-37,-23,-17,-37,-12,32
5,51,40,-72,-47,-7,-16,-4
-2,40,80,1,-3,-4,-13,-9
14,14,-20,85,8,20,20,-3
24,-26,32,47,6,-1,1,-4
-3,-34,101,-52,-1,1,10,20
24,-63,8,-82,-38,-2,10,5
-11,-30,59,32,13,-29,-24,-5
-38,-23,40,88,-2,21,19,-11
-14,-27,60,-93,-52,-13,0,-2
-20,6,59,63,27,-5,-15,-18
-16,1,59,-63,-20,-8,-15,0
-9,-4,-7,-76,-16,23,20,6
-23,16,82,62,26,-13,-8,-14
-28,-10,25,-9,-4,-10,-4,3
15,20,25,32,7,-2,-4,4
1,7,45,-62,-10,7,14,6
-17,7,-66,15,10,-18,-19,-15
20,8,-70,31,8,-11,-17,-9
13,7,-49,33,17,24,10,37
1,6,101,56,8,-1,-1,-20
0,-20,-48,-54,-20,-17,-1,-14
-11,-5,-1,112,21,5,-3,-4
31,1,-62,-27,-31,-10,-23,8
-7,-10,-26,-32,-20,2,5,-15
-13,5,-14,12,9,12,16,5
5,1,-59,-64,-10,-2,5,4
-10,-1,10,-44,4,-2,-1,19
1,19,97,77,25,3,-11,-29
22,-8,-74,57,17,7,2,12
3,6,-21,-115,-10,5,4,5
-3,-6,-37,44,5,5,12,-3
9,12,-15,30,5,2,-2,7
-3,1,59,10,-1,0,9,-23
-3,-1,21,0,1,10,-1,-1
-9,-5,62,-62,-5,-12,3,11
-1,-13,-71,7,2,12,3,4
-12,-8,-9,-3,-14,-32,-28,-12
18,24,8,56,25,20,15,24
-13,-7,51,-76,-5,16,4,-14
-2,4,-54,44,1,-18,-10,5
-4,0,35,-41,-21,-14,-11,-8
2,-3,-82,9,-4,-2,4,7
2,6,-81,50,-2,-13,-9,-6
8,11,57,-1,7,10,9,1
-11,-16,-92,14,-5,-2,-6,-1
-4,-17,5,11,-4,-5,-5,-4
-4,-6,8,4,-2,5,-1,0
-7,-19,-13,-17,-12,-1,-2,-2
-1,0,52,99,18,2,5,3
-1,0,20,-10,0,8,16,-4
-5,-10,-17,1,0,6,-2,-7
1,-7,-13,43,1,-13,0,6
0,6,-16,23,14,8,-10,1
2,-13,8,-43,-12,7,6,10
-2,8,-4,-23,11,-1,-4,-1
5,9,53,34,4,3,-2,3
8,12,27,-46,-7,8,15,0
0,-2,-15,-29,-13,-6,-2,-10
-8,0,64,56,3,-9,-2,0
-2,1,-41,-47,-5,2,-1,5
0,19,4,8,-3,-3,4,-3
0,25,8,42,12,-1,3,-6
3,48,-32,-72,-16,-8,3,-3
-6,-8,-30,-20,-8,-1,0,-13
3,-15,58,-9,0,1,-1,2
-16,-59,-86,47,1,-12,-8,-12
-2,-33,-8,16,-2,-27,-16,-3
0,-20,-12,-106,1,58,40,14
1,-8,23,3,9,18,4,8
-9,-10,-31,13,4,10,-2,-6
2,-12,-6,17,-2,-9,1,14
6,6,-23,-24,-10,-13,-8,-6
-1,8,-10,-25,-6,-5,-11,-4
-3,21,67,0,6,8,-5,-11
2,13,26,127,7,-3,0,4
-9,-1,-43,-45,-10,-22,-3,-2
-2,-6,-22,0,-1,-2,11,-7
-1,6,45,53,-3,-15,-4,4
-3,-13,-40,-47,-4,5,3,0
-2,-4,31,40,7,-2,-10,2
2,-2,18,39,6,-5,-6,-1
6,6,-23,-89,-13,-2,-4,0
1,-8,7,3,6,15,1,-4
-2,6,17,20,7,3,-1,-4
-7,-6,6,46,-1,-5,-2,-6
0,2,26,14,5,10,-5,-1
10,5,0,-35,-3,5,4,2
-6,1,0,0,-10,-11,-8,-3
0,-1,-46,-36,-3,-7,-10,-3
-2,-3,22,2,-2,-4,1,-2
-1,3,24,29,12,0,-4,3
-1,9,25,6,-6,-2,16,6
-7,-9,-48,-41,-7,-5,-5,0
-4,-2,-8,27,-4,-6,5,-1
-1,1,-23,-30,-6,-7,-14,1
2,-8,-17,20,5,-3,2,-4
1,7,16,-37,-14,1,1,-4
-6,-7,-2,-28,-14,-11,-20,-7
-3,-3,5,5,3,6,11,0
-5,-7,-36,-6,2,-1,-10,-5
0,0,-2,-22,6,8,5,6
1,1,33,37,2,-3,1,0
-1,-3,-37,-104,-9,-5,4,-1
-1,-1,36,53,2,-4,-4,0
-1,11,-14,-18,5,-5,2,-1
-6,-5,11,13,-9,2,-1,-4
-7,-2,15,40,3,3,-2,0
-6,-1,-5,-67,-7,-4,-6,0
-2,3,6,19,4,0,-1,0
3,5,-22,-73,-5,1,2,0
2,0,14,28,4,-5,-1,-6
6,2,-13,-3,-8,9,5,-4
0,-3,20,71,6,2,-1,-3
-2,-4,-10,-60,-15,-2,4,-2
-6,-6,11,44,9,2,-1,0
-4,-9,-34,-31,2,-8,-3,-1
0,-2,27,-52,-11,-2,0,-3
2,3,25,27,9,2,-3,3
-1,-3,-11,-6,-3,2,0,-1
2,5,21,42,4,10,4,3
0,-8,-36,-67,-16,-3,-4,5
