-1,-2,-10,1,0,-3,-7,-5
-6,-1,6,2,10,2,-2,-11
-5,-13,-2,-2,-1,-3,-1,-8
1,-4,1,-6,-3,-5,4,-7
2,2,15,5,-3,-5,-1,3
1,3,9,4,2,0,-5,4
-5,-14,2,6,-2,1,-3,1
-7,-7,-5,9,6,3,0,2
3,3,-6,-10,-9,-4,-1,-3
6,15,-8,-7,8,-7,-4,-2
-1,10,-12,5,4,9,-2,-1
1,2,-7,-8,-3,-3,-4,-2
3,-7,-4,-12,-23,-3,-4,-1
7,-9,1,0,-5,1,3,1
3,-11,-4,-2,-7,-10,0,-5
1,-6,0,4,7,-1,-1,-4
-6,3,5,-5,2,-1,2,0
-7,10,8,12,2,5,-1,0
-10,4,1,0,9,2,1,5
-8,-3,5,1,-22,-6,-7,-1
-2,-8,-1,-2,-10,-6,-4,-4
-3,-4,-8,-18,-22,-4,1,-5
3,3,13,23,32,10,3,1
4,-12,-26,5,7,0,8,6
1,10,-3,-4,2,1,0,2
-1,0,1,-1,3,-7,-6,-3
6,8,8,-7,-16,-13,-6,2
3,-2,-13,-2,9,4,4,0
-1,-8,4,-6,-10,1,-1,0
-3,-6,1,7,-10,6,-1,2
-5,4,-4,-10,-18,-4,-5,1
-6,5,1,3,20,7,-7,-1
-7,-6,-12,-5,1,-1,1,-5
-6,-2,-6,-7,2,-2,-4,-6
-4,2,2,0,-2,-3,-2,-7
1,5,6,5,-6,-5,-4,3
3,3,1,6,6,-7,5,3
4,-6,0,-5,2,-7,1,5
-4,-5,6,-1,-6,1,3,-3
-1,0,-3,-13,4,2,0,-7
6,-4,-1,1,-11,-3,-7,0
6,-7,-6,21,11,2,-4,0
1,-2,-6,-9,-16,-4,-3,-2
-4,2,4,-1,5,3,-2,0
-4,-14,-13,-6,5,-6,-2,-8
-5,-4,10,3,3,7,6,-4
-2,-10,-6,19,24,9,1,1
-3,-2,6,-5,-8,-9,-5,-1
-8,2,2,-4,1,-1,-4,-1
-3,5,-5,-15,-14,-9,2,1
0,1,-8,-7,-4,0,2,-2
4,2,-3,4,-7,1,-1,4
2,1,-7,-1,0,3,-4,1
2,-4,-3,-4,-1,2,-5,2
0,-6,0,-6,-5,0,-1,5
3,-6,-5,-3,4,-3,1,2
-2,-7,-8,6,-9,-1,1,-6
0,4,12,0,7,3,0,-2
-1,4,-1,-14,-11,-3,0,-2
-9,6,0,10,-3,3,-2,-1
-7,3,4,-8,7,-2,-4,0
-3,0,22,-2,-13,-2,1,-3
-6,-11,-21,0,10,-2,3,-3
3,-4,-17,-4,-31,-1,1,-1
2,5,5,-1,-8,0,3,-4
2,-1,-12,15,13,-5,2,-4
1,4,1,-21,-18,-3,3,-7
-1,9,5,21,35,10,2,3
-5,-9,-10,13,18,17,-5,4
-3,0,1,-19,-10,0,-12,-2
-7,-6,-6,-4,0,-9,-9,-9
9,-5,10,-15,0,-8,8,3
13,8,24,16,1,-7,8,6
-4,-21,-33,-20,-5,-7,10,-5
-2,-3,3,-1,-5,-9,-30,10
-13,16,35,16,-7,-1,3,-12
-13,-23,-44,-36,-18,-3,-14,-18
27,46,48,11,-1,10,-1,40
-5,-30,-31,-10,3,-7,4,-2
8,6,-16,-2,5,-5,-8,0
-22,-25,0,8,7,-1,11,-29
-19,-7,-28,-50,-9,0,0,-22
36,44,52,85,25,14,22,32
2,-14,5,-7,-2,-6,-10,-15
13,17,11,7,9,12,24,-6
-21,-22,-47,-14,-8,-1,-10,2
15,21,27,4,-8,1,9,63
10,12,8,24,4,7,10,12
-19,-1,-3,0,-11,-16,-20,-15
-3,-3,3,2,10,10,3,-33
21,34,31,7,8,2,6,-13
-42,-95,-70,-38,-12,-13,-32,-46
12,32,2,-4,-12,-11,-16,0
11,-8,6,-9,-4,-3,14,45
-9,8,11,8,0,7,13,6
-3,-22,-38,-8,-3,-4,-20,4
-12,-1,4,-4,-4,1,-5,9
-74,-19,27,47,11,2,-15,-61
88,30,-39,-27,4,4,19,56
15,11,49,-27,11,14,21,2
39,2,19,7,2,-7,-1,28
-35,29,-13,8,1,-10,-14,-15
-21,-46,-3,-21,12,10,-8,-41
23,16,21,13,-28,0,48,34
-15,6,-22,12,-7,0,-10,7
-8,14,71,-8,9,8,-1,2
-41,-1,3,21,-1,3,-6,-41
20,29,-18,-36,-14,-12,-47,-38
13,41,-16,3,-27,-2,43,54
21,-79,-42,-8,-29,-9,15,16
-37,27,68,5,2,-6,-4,9
1,2,-60,-27,-10,-7,-13,-2
-2,-44,-59,-47,-2,-11,3,-13
13,10,-45,52,31,-4,-43,-24
16,-27,21,-27,-25,-6,-11,-18
-13,24,24,-18,-15,-12,-11,20
-5,48,80,30,22,8,-13,-36
-34,-58,-122,-39,-13,2,3,-28
10,-59,-57,-50,-13,-11,28,42
-3,20,2,56,-43,19,23,29
-18,-18,27,6,28,9,6,-2
37,-14,19,-14,-13,-14,-13,2
-34,7,-57,-19,23,-3,-34,-39
-2,-42,-1,7,-28,-8,20,16
-9,-32,-31,-16,-36,-12,-20,-8
12,18,74,43,-14,6,6,3
26,-5,-90,39,12,11,0,0
-35,31,-10,-21,19,8,-2,4
28,16,54,15,0,3,-2,-30
19,-22,-87,-31,8,-3,4,52
-8,18,88,46,-21,-16,1,-19
-4,41,9,32,47,-2,-10,1
-54,-68,-53,0,-11,-18,3,-18
-1,22,-3,-27,-25,-7,-2,6
22,87,94,54,52,17,-8,-6
9,1,-39,10,40,21,25,10
20,-45,-28,-16,8,15,-8,7
6,-19,3,55,7,-1,-2,8
-20,2,-128,-37,-17,-7,-7,-15
2,21,111,3,-5,2,14,-2
13,103,-54,23,20,14,2,0
-47,-73,-59,-26,0,10,-13,-26
41,9,9,30,-8,2,8,47
-15,-23,3,-16,15,-6,-9,-25
-23,-10,-15,-70,-8,13,40,-8
17,12,-10,-5,0,-6,-14,-3
-21,11,63,-15,-10,-8,-27,-27
32,31,26,-46,-29,-25,-18,6
-3,3,94,89,30,8,16,16
-16,42,-11,10,10,2,16,-8
-42,-106,-77,-6,-3,-8,-14,-22
-1,-1,-86,-5,-1,-5,5,-1
2,-52,-36,-16,-14,-24,-24,-3
21,18,-47,23,-1,4,20,14
-55,-14,38,-40,-31,-9,-15,-40
86,73,64,30,34,12,-1,20
-10,-84,-94,7,-1,-20,-21,11
16,48,-9,-48,-53,-7,-12,9
-19,-4,69,73,21,16,53,-17
-23,83,-25,-60,-23,3,-46,-14
28,-17,34,-23,-62,11,42,45
-5,-60,-40,11,95,10,-9,8
34,22,-56,39,35,7,0,2
-60,-74,10,25,5,-4,43,-38
40,78,86,-80,-14,-23,-69,-5
-13,-36,-31,32,-69,9,12,5
42,86,66,-11,1,-12,-3,6
-51,-87,-65,66,-1,-15,-14,-18
7,25,-61,14,5,6,-10,-12
14,7,90,-30,-5,-9,-15,-24
6,29,39,-33,-11,-4,-2,10
-3,29,24,26,-10,7,46,3
-12,-61,-24,11,14,-1,-34,4
2,41,81,9,16,-4,3,10
-4,-82,-128,-74,-41,5,18,8
23,85,111,3,25,15,-8,12
-34,-55,-91,-52,-24,-11,10,-19
-14,10,70,51,-3,-5,54,-18
-12,-57,-110,-25,30,2,-75,-1
20,-22,-14,44,-19,7,24,16
-52,-72,-95,12,3,-7,-22,-20
26,64,120,-24,3,3,16,4
42,77,1,4,-15,-7,5,17
31,-110,-28,5,-20,-9,-21,4
33,127,127,39,40,24,35,35
-28,-2,-23,-46,-26,5,44,-21
6,13,52,19,-7,-15,-69,-18
-24,-47,-78,-92,-13,-15,16,-8
7,32,54,50,29,2,6,-3
44,5,31,-23,-3,14,15,41
-64,-35,20,-63,-10,-7,-21,-38
44,114,61,-39,2,-1,2,7
-25,-39,-59,47,-25,-22,0,-12
-72,-72,-114,-30,3,-23,-52,-35
76,93,78,50,7,3,20,28
-41,-83,-45,-26,-13,-6,-45,-36
32,113,-20,-39,31,13,30,7
8,-51,-19,59,14,0,-27,2
-19,39,37,14,13,10,30,5
-23,49,42,-12,-12,-13,-3,-16
-6,-55,-18,7,5,-2,-11,-2
-8,28,5,-15,4,-16,-22,5
6,-21,-72,-3,-12,-39,-6,1
-36,-9,43,22,26,30,-14,-7
38,-29,79,-6,7,21,25,23
12,-38,-111,-4,-5,4,6,1
-91,-127,-103,23,-29,-19,-14,-46
57,11,40,3,-8,-45,-24,33
7,-22,-94,-53,-59,3,6,13
5,-25,-85,-30,92,40,20,13
-21,11,61,-9,-11,-2,8,-6
-14,-23,-97,-21,-3,-3,-5,1
-10,13,116,43,-40,-13,-16,-18
34,126,114,46,-49,-15,-10,-6
-34,-95,-114,7,54,38,24,1
21,17,30,34,19,11,8,-5
-25,19,58,43,23,-6,1,3
4,2,-28,-42,-31,-16,-4,-1
-2,32,71,0,-11,15,17,2
32,51,47,43,29,10,-1,-10
-24,-56,13,-29,-29,-22,-29,-11
3,-5,16,21,10,-8,-3,-6
6,-62,-117,-46,-60,5,70,26
-39,-33,-90,-24,34,1,-30,-42
-6,18,14,-22,30,-4,-68,-29
4,48,83,45,-2,-2,0,58
24,-12,-49,-84,-25,-12,-10,0
-24,20,-43,63,-43,3,26,11
36,75,23,74,97,28,16,-8
22,45,8,-36,-6,-3,11,6
2,28,19,25,26,9,6,12
-34,-40,16,-14,-23,-6,-8,-31
33,-32,30,-111,-35,5,5,23
34,96,58,0,3,3,18,11
-49,100,85,46,-5,3,-8,-8
33,-32,-6,-34,-7,-5,21,17
-1,-17,-109,-5,-10,-16,-19,-15
-4,-12,48,-11,-8,-15,-18,-5
-46,-117,-113,-18,-8,-28,-40,-15
12,93,112,10,-13,4,-13,3
-35,-42,-102,-16,-6,-4,2,-24
24,15,-10,-39,-35,-16,-1,-3
-2,24,41,-10,9,4,-7,-5
-4,-73,-109,111,22,16,11,14
30,86,90,45,2,11,28,31
-50,-55,-128,-32,0,10,-11,-35
14,43,77,-28,-74,-20,34,-7
64,47,-19,0,34,14,-19,47
-26,-23,6,41,-16,-9,2,2
3,6,-12,-6,24,5,2,-1
-30,-58,56,-24,-22,-20,-31,-23
32,30,-23,36,19,-5,9,-25
96,-86,-68,-29,18,15,38,90
1,6,-30,25,2,1,-18,1
20,57,-95,-53,9,13,-6,-8
-128,-118,-42,-5,-2,-14,-18,-36
-2,38,39,-1,2,10,28,5
43,4,9,-24,-4,-14,-8,16
1,-19,-77,127,25,17,-1,-4
-45,9,44,-98,9,5,-3,-22
-28,89,34,47,5,-2,7,-18
-12,-83,-62,-62,-14,6,9,20
37,70,114,43,49,21,-18,3
-32,-87,-128,-44,-36,-12,17,27
-15,-59,-127,4,18,11,-29,-62
28,-2,-16,40,20,-10,-17,-16
30,-27,-69,-78,-54,-9,30,45
-7,1,101,66,70,19,22,9
-60,-82,-55,-6,-43,-20,-5,-4
-37,-111,-118,-14,7,11,39,-26
33,43,-88,-43,3,-4,-56,2
31,-25,8,-37,-25,-5,30,-10
-29,43,-52,-83,-29,-21,-51,-35
27,-58,110,68,29,22,42,58
4,-88,-72,-13,-24,0,21,-12
-15,-33,-90,50,-11,-9,-28,23
7,-22,-53,-69,13,5,12,-15
-33,12,52,29,-10,9,26,-34
-11,35,47,73,32,3,4,15
23,4,37,-7,-22,-13,-36,-15
-6,-27,3,-33,-41,-23,-40,-9
18,-35,-44,-94,-76,-15,20,10
-21,-8,17,105,101,28,-9,3
27,-40,24,60,60,7,13,-33
28,14,2,-41,-27,-8,30,100
-56,35,15,39,8,-9,-44,-30
9,-43,37,-88,-63,-17,8,-16
36,93,62,-18,-31,-5,20,-6
4,-100,-61,22,28,19,-25,-12
7,104,-33,61,13,7,-18,-1
1,56,98,-25,5,-9,-5,15
-9,-49,-122,-50,-6,1,50,20
16,46,16,62,12,15,8,7
-29,0,-34,23,-15,-18,-61,-31
-31,22,57,-16,-25,-15,-27,-30
19,58,-13,18,-17,-1,-25,-16
-28,-34,-3,-21,-8,-8,65,27
-10,70,7,10,1,-2,9,-14
14,38,30,7,-7,-10,-48,-40
-11,-65,-3,-16,24,-7,4,50
-22,53,39,69,17,10,11,-24
1,-9,72,-41,-7,1,-28,15
25,-27,-27,-57,-10,22,40,-17
20,-2,71,37,26,23,14,16
-37,-9,33,-62,-31,-41,-42,-38
-15,-19,-47,33,38,23,31,9
4,-93,-128,-73,-22,-10,-31,-9
57,86,95,10,-11,4,-22,21
58,78,-22,20,26,29,59,40
-21,-16,27,-13,-13,-29,-37,-38
-15,-14,38,66,7,-13,-2,1
-72,-7,-101,-102,-41,10,-4,-40
30,21,110,30,49,28,-17,-6
89,54,-26,86,-7,-5,22,64
-63,-74,-64,-57,-9,-19,0,-5
-16,-69,-67,-66,-46,-13,-21,-1
-15,73,40,40,-15,-6,9,-58
-42,-64,14,-35,50,19,-10,12
44,-11,-45,69,11,0,22,21
-29,-32,-66,61,-5,-26,-32,-28
9,-6,-75,-67,-18,-7,3,30
-11,59,84,19,12,2,-5,-24
-2,-72,-53,-57,-12,-1,19,17
-14,-71,-29,-3,3,18,54,10
-43,57,3,-2,10,-5,-88,-32
61,-128,-74,-48,-18,-8,30,31
20,31,60,81,10,-4,1,35
3,39,25,-54,-28,-8,-17,-17
-26,-101,7,67,8,-10,20,1
-11,65,1,26,30,16,-9,-48
8,44,57,-5,6,32,29,-4
76,29,-13,-18,10,-6,15,78
-13,-58,-7,19,-12,-13,-7,-13
-7,10,-34,1,-16,-3,-4,11
-25,-10,42,-1,-1,-3,-1,-33
-64,101,83,-34,6,-3,-24,-65
103,22,-10,8,25,27,45,74
7,33,107,50,25,10,9,9
-17,23,-62,-3,4,-8,-10,-8
-36,-41,-27,-55,-16,-18,-22,-18
-56,-60,-3,44,-21,-17,12,-42
-2,67,33,-81,-17,-13,-28,-20
37,23,95,83,42,19,5,26
23,107,95,18,7,11,10,70
-21,46,-17,-36,-13,-5,2,-26
-26,-31,-78,34,-15,-4,-14,-14
16,44,-57,-58,-14,1,28,-15
-21,-72,3,90,-3,-10,-39,-26
-3,-23,-37,38,4,-7,-7,7
0,28,108,-65,-10,12,21,-2
4,22,-54,15,3,-23,-16,0
-53,-37,8,-1,4,39,92,-16
85,57,89,-39,-29,-23,-88,12
-1,-48,-72,-25,-36,-19,-7,-16
-18,-6,26,28,20,5,0,2
42,63,33,15,-4,2,-6,9
-31,3,10,24,11,20,22,-8
10,-18,-74,-42,-16,1,0,12
-4,-65,-52,-30,-11,1,-15,11
17,43,-4,29,9,-6,-8,16
-22,-46,-98,-38,-20,-6,2,-6
-19,-16,-35,33,2,-10,-13,-5
-4,30,29,-5,6,3,11,13
1,-46,-34,-28,-8,-14,-30,-17
-9,10,-1,-1,10,2,15,1
3,-18,-1,-11,2,8,1,-7
-2,8,59,28,-5,1,-7,-4
9,-16,-6,15,4,-6,-7,-3
1,26,39,-12,-6,-6,1,-4
-8,-10,-33,-16,-8,-14,3,5
6,4,24,8,4,-5,0,18
-9,-11,-38,-11,-4,-9,-17,-32
0,-16,-29,-31,-3,1,2,-3
-4,-5,37,-10,-7,-22,-19,-7
6,6,28,20,1,24,8,9
9,-20,-35,-24,-4,7,22,14
-15,-6,-29,-63,0,-2,6,-10
-12,18,-9,84,15,10,4,-3
-5,39,3,-14,-13,-13,-28,-7
3,-3,-19,5,-4,-6,-5,2
0,4,10,-24,-5,-4,5,-8
-2,-26,-6,-19,4,-2,-2,3
-11,-24,-48,23,-4,-1,8,-2
5,-6,-55,-80,-17,1,-7,3
-6,4,74,112,23,3,0,-2
4,-12,28,-29,2,6,1,-3
-1,-14,79,4,6,4,1,-8
2,-20,-4,-58,-8,-3,-5,-6
-4,-1,2,-24,-11,-10,-13,2
-2,15,-12,29,-7,-3,3,-7
6,9,1,-57,-5,9,11,2
-15,-17,-11,52,-2,-9,-10,4
5,-5,14,-11,-2,-3,1,1
-2,6,83,54,16,16,13,10
-7,20,-15,-68,-16,-15,0,-3
0,2,-48,-16,2,2,-13,-7
0,8,29,32,10,-12,-7,2
-10,-20,-27,33,-9,-7,-1,-1
15,-25,-58,29,8,7,-8,-8
13,9,93,1,-16,-2,5,15
-7,-20,-71,-53,-5,7,-7,-7
4,-1,0,36,1,-11,-8,-16
