-4,-4,-22,-11,-3,1,-5,4
-3,-9,-5,-28,-6,-1,-1,-1
-6,-6,1,15,10,-6,-4,-7
-3,5,-18,-3,5,-6,0,-8
-6,6,-18,-8,2,-9,0,-1
-2,6,-4,5,-4,1,0,1
2,4,1,-11,-6,-4,-4,1
1,-6,5,7,16,2,-2,-1
1,-3,23,10,3,4,0,-6
-4,0,8,16,5,-1,4,-1
-2,-5,2,-4,-1,-4,-2,-4
-1,-3,-20,-8,-7,-8,-4,-3
3,7,8,20,0,1,1,-2
3,-2,-25,-71,-7,2,2,1
4,-4,1,-9,-4,-3,7,3
1,-1,22,9,-3,-3,4,2
-2,-5,-12,-7,-5,-4,-1,-6
-3,0,23,42,0,1,-3,0
-4,0,1,18,-1,-3,-2,5
-8,-5,1,2,1,3,-2,6
-2,2,-17,-27,-8,1,-4,6
1,5,-4,21,5,1,-4,-6
8,3,16,-5,0,2,-5,-5
2,1,6,-11,2,3,0,-7
1,1,3,12,-7,-2,-3,0
-4,-16,-30,-63,-3,-6,-3,-4
1,1,41,50,0,-1,-2,-3
0,-2,-2,5,-9,4,4,-6
-4,-7,-11,5,-5,-1,3,-6
-5,1,2,5,-6,-5,2,0
-6,4,40,57,2,-3,-1,2
-6,-12,-45,-64,-12,-3,-7,8
-3,0,3,-3,7,3,-5,6
2,3,13,12,5,3,3,-1
3,3,-22,-3,9,0,4,-1
-4,3,7,22,3,-1,4,-5
-5,-5,-7,-6,2,1,0,-3
-4,-2,13,5,-4,-5,-4,0
2,2,-18,-38,-5,-4,-1,0
9,5,62,58,10,2,2,2
7,-6,-36,-39,8,-2,0,0
1,4,4,9,-14,-5,-4,4
-5,-6,-5,-2,2,0,-2,-2
-7,-1,-30,-73,-5,1,0,-2
-5,2,14,38,6,1,0,-5
4,-2,-2,-3,3,-1,-3,-5
-1,0,-13,-24,0,-4,-2,0
-2,6,6,15,3,-3,-1,-1
4,3,-1,-20,-4,-2,-3,1
-3,0,-6,12,1,2,-3,-5
-3,-5,0,-1,-12,-1,-3,-6
-5,-6,1,10,-7,-2,-3,-2
-3,-5,1,-2,-6,1,-3,2
1,6,12,-3,-1,0,2,1
4,0,1,2,-2,0,-1,-1
0,-6,-18,-9,5,-3,2,-2
4,-5,-10,-21,5,-5,2,4
1,-3,15,11,-11,-5,-5,6
-2,3,-10,12,7,3,4,-1
-1,-3,-18,-20,-7,-4,0,-2
-2,-6,0,9,-11,-2,1,-1
-5,-1,-6,-8,-8,-2,-1,3
-1,0,-15,-17,-8,-2,0,3
-4,0,2,14,0,2,-1,-3
-3,2,23,19,12,3,-2,-8
2,-7,2,6,4,5,-4,-6
-1,-6,-3,-10,-2,1,-5,-4
6,6,-4,1,6,4,-5,0
0,2,4,13,-5,-4,-6,2
1,-1,-18,-15,4,1,1,-1
-1,-5,-4,-3,2,-1,3,1
-3,-1,16,9,5,-2,5,-4
-3,-1,14,-9,-3,-4,6,-5
-3,-4,-10,-3,5,-2,4,-2
0,-2,-3,2,-3,-4,-1,-1
4,2,8,24,4,3,-5,-1
4,-1,-13,4,4,-3,-3,-2
1,3,16,-3,0,0,1,-2
-5,-7,14,17,2,0,-3,2
0,-3,16,1,-3,-6,-3,4
-4,4,-7,4,-4,-3,-4,0
-5,6,-11,2,3,-3,-2,-1
-9,-1,-4,-11,-7,-3,-4,3
-7,0,2,10,-8,1,-1,5
-2,-3,-12,-6,-7,2,-2,3
5,-2,29,33,2,0,-3,0
5,-3,-21,-12,3,1,0,-7
7,-2,-17,-26,9,0,3,-8
0,-1,3,3,-4,-3,1,-4
-2,-1,-8,-7,-2,0,-1,-1
-1,-3,13,8,-7,-3,5,1
-6,-3,9,28,12,-3,2,2
-6,-1,-25,-43,1,7,-1,-2
-2,-1,6,28,10,0,-2,1
2,-2,-1,-11,-3,0,-8,1
3,0,-8,-8,-9,-3,-1,-3
-2,-1,5,10,10,1,1,0
-1,0,-10,-16,-10,-1,-2,-4
4,4,-9,-19,-4,-6,1,-4
-11,4,5,5,0,0,1,-5
-10,-2,-8,-4,-7,-3,2,-4
-6,-6,-10,-18,-3,-1,-4,-1
-1,0,7,11,3,-1,-4,1
6,-6,0,-5,-11,-4,-7,7
9,1,19,19,16,1,-3,0
5,-4,-7,-18,-21,-3,2,-1
3,-1,1,15,25,10,3,2
-2,7,-7,-16,-12,-9,-1,0
-3,-2,7,-5,10,-5,2,-2
-1,-3,-3,1,-2,-7,3,-4
-2,-3,-7,-10,-20,-3,-2,-4
0,-7,6,-13,-13,2,-4,-3
1,0,-1,10,2,1,-3,-1
-1,1,8,10,-14,0,-2,5
-5,2,13,0,-8,-6,0,-1
-1,3,-13,9,4,4,-1,-4
0,-2,-14,-23,-18,-10,-9,-6
-1,2,4,18,8,11,1,0
-2,0,-5,-3,20,3,2,-2
4,-2,12,2,3,0,-3,-5
3,-2,13,1,-2,0,2,1
-2,-2,3,-11,4,-3,-4,2
-10,1,-5,-11,-3,-4,-2,1
-8,2,-14,-7,-10,-3,0,-4
7,0,21,16,0,3,3,1
-3,0,6,-7,-1,-5,1,-1
-1,5,-8,-1,-5,-8,-6,0
5,2,-4,-1,14,-2,1,8
-8,1,26,4,-1,-2,1,-2
-8,-8,-47,4,24,3,-3,-5
2,-3,9,-1,-29,2,1,-6
11,0,-14,-8,-10,8,3,6
-5,0,-12,-4,-8,-3,-4,-2
-3,1,-2,-4,2,0,2,1
-20,-5,-4,-2,-8,-4,-3,-3
4,12,4,-10,5,0,1,3
19,-5,2,-31,-24,1,0,14
-3,-11,-3,35,24,6,-7,-8
8,4,-32,6,-2,3,-3,-5
-9,-11,12,12,-16,-6,-9,-12
-2,0,-18,7,-2,-2,0,-6
3,3,10,18,-8,-11,-3,3
-3,-6,17,-27,8,0,3,4
1,5,-31,-12,6,-3,7,6
-14,-6,-11,-13,0,-7,-9,-10
-14,5,15,-19,-20,-5,-2,-13
7,6,-2,13,29,12,12,3
30,-7,-4,-4,8,3,7,18
-15,6,18,17,-1,-1,-10,-10
6,18,4,-7,-23,-1,-4,-4
2,-15,1,-7,-4,1,6,16
-12,14,10,5,-8,4,-5,-7
-17,-33,-16,-5,8,-2,-9,-10
-30,-5,11,-12,1,-10,-7,-30
11,-29,-11,-3,-10,0,5,11
10,28,-10,-18,-22,-26,-11,0
26,-7,-14,21,1,5,29,4
-31,-58,-15,-15,-24,-15,-40,-17
-8,62,20,-5,27,4,-5,-2
-8,-85,-9,11,0,-9,13,15
-88,29,10,-9,40,2,-19,-34
76,61,18,23,4,8,17,13
-21,-78,-52,-55,-44,-29,-7,-12
-44,-5,24,85,51,31,-4,-27
0,-14,-9,-8,-14,-7,-11,-12
-57,-55,-11,-48,-6,6,0,-4
105,76,3,43,23,16,26,21
-19,9,-6,-82,-95,-80,-68,-13
70,47,12,69,78,54,78,76
-21,-38,-24,7,4,6,-20,20
17,33,33,-13,-58,18,38,10
-7,-18,-9,-44,33,-15,-12,-21
41,73,3,6,-17,-20,-35,-3
-91,-82,-6,59,-35,3,57,-28
79,4,-42,-96,-72,-35,-54,17
-24,50,65,110,98,56,6,10
-23,-78,-7,-9,1,-2,-7,-20
44,76,-17,-21,-55,-10,55,20
-108,-91,-17,0,29,-33,-100,-113
-90,16,25,-88,-104,-34,55,90
105,23,-14,88,52,78,25,22
80,-9,13,-23,79,7,16,32
-74,15,29,27,-21,12,50,-59
46,-30,-71,-65,-38,-39,-79,-34
-76,35,21,-50,-49,-28,-11,-14
6,-13,-31,23,2,20,-21,-21
56,80,44,44,46,7,23,53
55,9,-23,24,-3,31,1,0
-33,-100,-61,-85,-30,-30,18,32
-46,25,38,55,75,5,-36,-59
23,-33,4,-81,-97,-15,28,62
-42,15,13,85,99,37,105,-30
9,2,1,-43,-55,-44,-119,-40
63,47,6,-27,-39,-23,31,18
4,-73,-1,17,74,12,17,35
12,20,-26,-17,8,14,64,-6
-19,-21,-13,-49,-102,-29,-20,-39
-67,-44,29,-9,-56,-8,-12,-22
49,56,-1,7,63,17,-42,34
-29,-61,2,-49,-56,-30,-56,-24
-12,8,28,42,52,42,28,8
8,56,-38,-118,-51,-1,30,43
-58,4,-8,49,-23,-36,-20,-95
25,18,38,64,26,34,-15,31
18,2,-2,11,15,-7,-13,15
-25,-40,-16,14,30,10,15,-11
-53,-35,-36,-24,-13,-8,15,8
76,8,-27,-15,5,-13,-1,9
-36,-53,5,-50,-40,1,51,11
31,29,10,110,87,6,-12,12
-26,36,33,33,11,28,-61,-17
-27,30,16,12,-39,-17,-1,-22
-35,-49,-24,-56,9,-4,6,-22
69,42,33,62,-15,19,-9,14
-19,-13,1,-18,11,11,-8,-3
-3,25,21,-41,-49,11,81,67
25,-53,-5,103,70,42,12,25
52,31,-50,-105,-63,-19,82,34
-23,-41,-46,10,-5,-20,-57,-10
92,43,46,49,30,3,-73,-27
9,106,34,-60,-53,-22,38,-2
-67,-70,-59,-27,65,-15,-41,41
-5,-30,-19,56,86,42,91,1
-15,23,-27,-111,-76,-34,-73,-24
-7,71,76,64,83,-5,-10,-16
-43,8,1,-32,0,-7,-39,-32
5,-26,21,45,-32,-9,16,-13
21,27,-24,-31,-14,-6,29,-1
-6,60,51,127,49,22,-10,21
-32,13,-20,-26,-13,-4,-8,-48
-1,-7,-52,-70,25,1,41,34
56,46,-20,15,17,25,-17,8
9,50,-29,-17,-32,-24,6,2
29,-64,53,28,13,15,-46,8
-5,32,43,-17,-39,-20,-11,-15
-36,-39,13,62,29,19,5,-21
-36,-33,-29,-83,-27,-6,-12,-2
21,47,57,57,-80,-14,8,4
-35,45,23,-89,-36,-11,5,-4
12,-43,-83,-4,-2,-15,6,3
-38,13,9,49,10,11,21,-13
35,-76,-31,-83,57,5,-24,-8
-15,77,106,46,-42,-26,-16,-17
-13,-38,107,120,63,62,49,32
31,-81,-89,-78,-12,-18,28,-10
12,38,23,3,7,4,-42,15
-12,-116,-96,-31,-17,-25,-1,-32
0,74,6,-67,62,19,-19,-12
-17,-108,10,31,-15,-6,9,12
7,75,16,94,73,36,37,5
1,29,36,21,-33,-20,-37,-23
-29,-41,-21,0,-20,-5,29,-3
-6,9,-39,-1,-38,21,4,8
-39,12,-95,-65,-31,-41,-31,33
11,35,-32,2,-31,-7,-20,-35
-34,-92,-7,-48,65,22,15,-2
-54,28,113,94,-30,-12,-43,-56
23,1,-83,-72,-107,-3,35,14
-4,63,12,35,55,46,34,4
-40,3,64,13,-9,-25,-85,-61
29,41,-20,-119,-4,-4,23,12
36,-54,52,-91,-103,-31,48,39
16,-13,49,79,100,38,-10,20
-67,-27,-38,-81,-89,-35,-7,-34
12,37,-7,-58,-56,-10,25,-3
-11,8,56,77,59,4,-73,-35
-15,-39,-30,-41,-14,2,7,9
49,-26,-36,-33,-87,-35,8,25
19,9,9,75,89,20,-15,0
-36,-25,-4,-58,30,43,61,-22
47,91,86,68,-25,-34,-13,33
-46,-20,-67,-4,-39,-12,-7,2
29,-40,45,-15,-74,-13,-19,7
20,85,35,38,20,23,1,-4
-36,-45,-32,-64,4,-29,-27,1
63,4,53,-33,-68,-42,22,-14
4,-10,-25,51,67,8,-53,23
-10,4,-66,-38,-70,-43,-22,-5
-23,23,27,1,-12,42,70,13
39,-23,-43,31,-26,-43,-78,-19
-56,-28,-30,-41,-44,-11,-3,-53
25,34,14,-11,-25,3,56,-32
-35,-83,-29,43,23,21,-20,38
30,78,25,-73,-71,-16,-46,-26
42,13,-55,72,89,34,54,38
-8,-18,0,-55,-67,-29,-19,26
-12,97,59,76,64,35,15,-20
-42,-70,-26,-11,22,26,48,2
34,10,-83,-22,-34,-38,-46,20
-21,13,18,-39,19,1,-2,4
11,-5,-107,-80,-113,5,36,-1
-18,36,59,35,57,5,-31,18
8,29,-60,-48,-2,-7,-1,18
-33,-3,20,39,-34,-28,-40,-33
44,-52,-53,59,47,13,25,58
-57,-21,-14,27,37,28,29,-21
6,36,96,-43,-36,-8,16,-13
-44,-2,-39,13,36,-20,-45,-21
-23,-75,13,-128,-97,-82,-72,-36
31,124,47,33,87,64,35,-27
-10,-6,91,111,127,68,58,60
64,-106,-78,-62,-49,25,-4,16
37,33,30,-36,-13,-35,-42,6
-18,-28,-55,-24,24,27,69,-4
-23,0,54,36,-62,-22,-28,-20
-22,20,1,33,44,3,-9,-25
-5,-63,-70,-79,19,3,0,12
-38,-7,17,19,-6,8,-44,-38
61,62,3,-122,-70,1,-20,56
-12,48,91,127,117,32,-2,13
5,18,14,-71,-87,-39,-15,-37
-2,3,-49,107,106,40,46,-6
-28,-34,-31,-1,-42,9,61,22
-5,-67,-105,-73,-30,-15,-50,-1
22,32,19,52,-52,-2,29,1
-18,-11,-42,5,15,-8,-10,-5
42,82,-59,-18,12,-16,-4,-5
-5,-15,-33,5,20,19,55,16
-15,-4,-62,76,8,29,20,-6
-34,-25,-59,-119,-92,-59,-40,7
13,-31,-6,101,31,10,-21,-19
-13,12,59,-12,-10,-6,6,-30
28,24,69,-2,14,15,-8,24
-9,37,34,-40,-58,-8,-4,-14
-34,-73,5,24,-38,-7,-40,-36
-9,89,91,43,66,23,55,62
64,-98,-40,44,29,2,4,21
15,-3,39,32,-9,-20,-5,24
-31,-14,73,9,-36,-26,-4,-25
-2,7,49,-48,-71,-13,-25,-36
-56,-2,66,58,-40,-21,-9,-26
53,61,54,28,25,33,54,72
-15,-73,-81,-114,-41,-17,-35,-46
-9,26,30,82,-11,-15,5,-4
-23,-28,-73,-128,-23,-42,-44,-13
-1,-23,42,20,7,24,4,16
-20,71,33,16,15,8,-6,-41
70,-66,-21,-7,7,8,-3,40
17,77,57,17,42,16,33,13
-7,-31,-70,-9,-11,-18,-20,13
19,17,22,-30,24,2,-11,-8
-14,-36,32,19,-7,-2,4,-9
5,-5,21,-9,17,4,-5,-19
-1,0,51,39,-4,-13,-29,6
19,8,7,-38,2,5,33,20
-21,-13,-64,-44,-8,-25,-15,-19
-3,20,-24,38,24,34,27,12
1,-8,28,6,-7,-2,4,-5
-13,-11,-5,43,-7,-45,-16,10
3,28,77,-45,-11,-19,-28,-17
-11,-16,-103,-32,-5,1,-6,-30
-5,-7,-17,16,11,16,4,35
31,14,-14,-10,17,-13,-10,20
6,34,23,54,23,39,41,11
1,4,-26,4,-9,-2,-6,-9
-11,-11,-12,-95,-17,-25,-15,-39
1,-16,-122,67,32,7,2,10
-5,-8,-46,-70,-10,-4,-22,-18
-6,14,37,-62,-24,4,-7,-4
39,23,103,49,-7,-13,0,3
-10,0,-43,-14,-4,-12,-2,-11
-22,-38,-108,102,45,7,-3,-17
-22,-26,-115,-35,9,14,7,37
-10,-17,15,-34,-21,-6,5,5
-32,-3,127,16,-3,13,7,-9
-3,-6,22,23,-5,-2,-6,2
-18,-8,124,-8,3,-7,-5,4
-6,-12,49,59,5,16,6,-6
-13,-5,40,-51,-12,-9,-4,-14
-9,6,61,-26,-20,-13,-5,6
25,38,121,94,39,-2,-5,8
0,-22,-118,-24,-4,17,14,11
10,16,-28,13,12,20,21,-5
-4,-12,-48,-51,-42,-7,-4,-3
11,20,35,80,18,8,5,3
3,-12,-30,-30,8,-2,-3,-12
49,-8,-103,-78,-18,-12,-17,4
9,19,55,20,22,18,19,10
12,-32,-118,-124,-20,-14,-3,6
10,29,71,68,22,-15,-1,1
-9,-7,28,2,-4,10,-4,-1
-2,1,-74,-40,-7,-4,0,6
-13,10,83,69,13,1,-14,-21
12,7,-87,-19,1,-7,-6,11
-15,-20,10,39,-5,37,29,17
5,9,0,-20,-5,-8,-4,-3
-14,-21,-128,-66,-10,6,8,-5
-13,-21,-25,-7,-15,-11,-7,-10
1,32,79,58,14,-12,-10,-8
0,-9,-19,24,13,12,-5,9
18,9,-3,41,16,39,17,7
3,-8,-52,-38,-8,-11,-4,5
-7,-1,40,-30,-11,-8,-4,-3
4,4,2,96,20,-1,7,-7
8,18,31,-50,-27,-26,-10,-3
-7,1,-89,-105,-8,4,8,21
-20,1,16,20,6,-3,-7,-18
-1,-14,-114,-94,-14,8,-1,0
4,-4,-2,75,9,-3,0,-9
5,6,92,9,-4,0,-4,-3
0,-4,-8,-42,-16,-9,-20,-2
-11,-21,31,-10,-9,-5,4,0
