-4,-5,23,26,-7,1,-2,-8
-6,-4,-15,-5,9,5,-2,-6
3,5,2,2,8,2,3,4
3,6,-4,-9,4,0,0,3
11,3,-10,-12,0,-2,-2,7
8,-1,-3,-3,-4,-3,-5,0
-2,-7,1,24,3,3,1,-2
-7,-1,14,25,-1,-1,-2,-1
-9,0,-44,-51,-12,-1,-3,2
-10,-3,14,4,-13,-5,-4,-5
0,-6,-12,30,32,8,-1,-2
0,-3,-16,-22,-3,-4,0,0
0,2,16,-13,3,-3,-4,-1
1,-3,-4,-3,-6,-1,-2,-1
0,-1,-4,-11,-19,-6,-1,-3
-1,4,16,36,52,9,4,1
-5,0,31,6,-25,3,3,1
-6,-5,-19,2,13,6,0,-1
-2,3,0,-32,-16,-2,-1,3
-3,-5,-15,-21,-27,-11,-8,1
1,3,2,-19,5,-1,-3,1
0,-1,11,26,1,-4,-4,1
-5,-1,-7,14,7,-3,0,-3
-1,0,-13,-27,-5,-3,1,-8
-1,-12,-4,15,2,1,0,0
2,-6,-7,-17,-6,2,4,1
7,2,9,32,7,2,2,1
8,10,17,-22,-5,0,0,-3
2,0,-38,-58,-9,-4,-3,-6
0,5,9,23,5,1,-3,-4
-2,4,22,16,-10,0,-1,0
-8,-5,-22,7,-12,-1,-3,1
-8,-5,10,15,1,-4,-2,1
-1,-1,-9,-22,11,2,-1,3
3,-5,6,11,-7,-4,-4,-3
3,-7,-15,-51,-1,-3,1,2
4,-2,-2,3,-6,-6,-3,1
-6,-1,6,-7,-6,0,-4,1
-3,0,-8,-24,2,0,-2,0
0,0,17,22,-1,-3,-1,-6
-2,5,7,14,4,0,1,-5
-2,-3,0,-3,-5,-1,0,-3
-1,1,-1,3,9,2,-4,-3
3,2,-4,-13,-9,-1,-1,6
-1,4,16,19,9,1,1,0
0,0,-22,-44,-14,-2,0,-4
-3,-3,-1,24,10,-2,0,-5
-2,-1,-7,-31,-21,-4,2,-1
3,7,31,73,9,2,6,8
2,2,2,-40,22,0,-4,6
-2,-4,-11,-14,-8,-3,-5,3
-1,-2,3,-9,-5,2,-7,-3
3,1,-17,6,5,9,-2,-3
0,-2,1,17,2,1,-1,-1
-5,-1,4,11,2,2,1,-2
-5,-1,1,35,2,4,1,-9
-5,-6,-14,-46,-12,-7,-2,-5
1,1,7,37,5,-3,1,-3
2,-3,-13,-46,-6,-5,3,2
-1,-1,2,25,-1,-4,-2,3
0,-2,-10,-35,-12,-2,0,3
-5,-4,-5,-4,-11,-2,0,4
-7,-4,-11,-18,10,2,1,-3
-4,-3,7,22,5,3,-3,1
-4,4,22,-8,3,0,-3,-3
0,-3,-36,-13,-1,-5,-3,-3
2,5,9,30,-9,-7,1,3
4,-11,-17,-51,-9,-6,0,1
4,-10,-5,-6,22,2,-3,-1
6,3,10,11,-28,-4,-2,-3
-3,-3,4,-4,5,0,-2,-4
-2,5,7,19,-3,0,0,-4
-7,-1,-23,-28,-6,-7,0,-3
-5,-1,8,9,2,-2,0,-2
-5,0,-9,-6,-2,0,-6,1
1,-4,-22,-28,15,4,-2,0
2,0,-1,-12,-2,2,-2,-2
3,0,23,31,5,1,-2,-2
3,-5,-32,-16,-5,-2,-1,0
-2,1,-6,15,2,-3,-2,0
-6,-3,2,-1,-10,-3,1,-1
-4,1,2,-6,2,3,4,0
-1,-1,11,11,14,6,7,-1
-3,-5,5,17,-7,-3,2,-4
0,-2,-18,-15,-10,-3,-1,-3
-3,5,13,-28,-48,-9,-4,-1
-1,2,-4,23,37,8,-2,-1
2,-4,-3,-14,-3,-5,-9,-4
-1,-3,-11,15,7,2,-4,-2
2,2,0,-13,-1,-3,-5,-1
4,5,4,-8,-12,-3,-2,2
1,3,4,-7,6,3,4,3
-4,2,19,5,-4,-3,2,1
-4,0,-11,14,10,0,1,3
-2,-2,-10,-23,-9,-3,-1,3
1,-3,13,16,1,-1,0,2
2,-5,-8,-4,-5,1,1,-2
-1,-6,-23,-21,-4,5,0,-6
-6,0,45,34,-1,1,-4,-7
-6,-1,13,10,-12,-3,-6,-5
8,0,-8,-8,0,-3,-6,-1
7,-4,5,8,14,-5,-2,-1
3,-1,-16,-44,-11,-4,-2,-1
-3,4,3,-2,-30,-6,4,1
-4,0,6,20,6,-1,4,3
-5,0,32,4,15,2,2,2
-7,-7,-43,-46,-6,-5,-2,-2
-2,5,-1,22,18,4,-2,-2
-6,-3,-17,-16,-25,-3,-7,-6
3,0,-14,1,-3,-2,0,-2
3,-1,17,19,11,8,6,1
-1,-3,-6,-29,-9,-5,0,1
-1,-4,-8,14,12,-1,-3,-2
2,0,10,13,10,3,-5,-7
1,3,-2,-2,-9,-2,-6,-2
-2,1,-3,-8,-21,1,-5,3
1,-1,13,12,15,6,3,6
-7,-4,-6,-10,-9,-7,1,0
1,-9,-10,-16,-16,-8,-1,-5
1,0,-7,-12,12,-5,5,-5
1,13,20,40,-25,-4,-14,4
-2,-4,-8,-38,6,8,8,1
5,16,30,49,31,8,4,-3
5,4,-4,-16,3,3,6,1
-8,-7,-2,-47,-2,-1,-5,-21
0,-1,-3,26,-2,-5,-2,-2
2,-8,0,3,-13,-6,-12,27
-1,-5,-3,-4,5,6,-2,-23
5,0,-7,-10,-13,-11,7,4
1,2,-3,11,12,1,1,15
-6,-1,-5,-2,0,0,17,19
1,10,11,9,4,3,5,15
-11,-23,-44,-3,0,0,-3,-30
-4,17,23,4,4,-3,-12,-14
6,1,2,-17,3,-1,-1,-7
10,3,-24,12,-26,-7,4,16
0,1,25,-6,-10,-3,0,-5
-15,-12,-6,15,13,1,-5,-11
-14,7,1,-25,-3,-4,-9,-11
6,2,21,-15,-12,0,-5,-8
14,7,-13,32,-6,7,5,15
3,0,-3,17,44,8,1,11
-14,-13,-11,-4,-8,-1,-5,-14
-16,-5,5,-7,19,-5,-9,-12
-4,1,5,-14,17,-2,2,9
-7,-6,-15,-8,-19,-10,0,-3
-1,7,4,8,-10,-2,-6,-18
-23,-15,7,35,6,-5,-6,-13
39,3,-20,-21,12,6,14,33
10,-6,7,11,-24,-1,-2,1
-17,-3,-23,-12,-17,-3,-1,-27
-52,-31,0,13,-10,1,-17,-15
18,28,0,-34,-22,-7,-4,26
44,12,-8,25,11,8,27,29
33,23,9,5,-19,-15,-9,14
19,-40,-19,-22,10,5,9,-7
-51,0,1,6,-12,-9,-17,-40
9,21,-14,-69,-91,-18,-7,0
-36,-18,16,98,59,20,3,-13
-23,-59,40,20,7,-3,-14,-11
61,41,-7,22,-17,11,12,35
-15,-18,-3,-32,-55,-29,-8,-19
45,63,-20,-27,-14,3,2,18
-68,-68,-17,0,19,-9,-9,-23
-2,24,12,-31,-17,-7,-10,8
-57,-44,-14,13,45,9,-14,-21
37,22,2,-27,-8,9,6,14
29,107,7,-31,-21,-22,-6,-10
-42,-105,1,96,70,30,51,16
86,84,9,-62,-88,7,6,31
-36,-65,-34,30,92,7,-10,-6
-58,37,11,-18,-49,4,40,29
67,-35,-44,-67,-42,-36,-66,-38
-72,92,90,20,23,15,14,-51
109,-92,1,42,47,25,39,78
24,38,-49,-66,-87,-30,-28,-7
-54,-1,3,-9,8,-10,-7,-30
-46,-36,-32,21,94,6,-43,-81
33,65,19,-34,-106,-9,25,55
-12,-19,-33,36,114,19,34,37
-56,42,23,-22,24,-11,-74,-40
79,-57,-45,-4,-3,-8,70,48
-75,24,-19,-21,-4,-31,-111,-111
78,9,-11,-16,23,14,40,97
-14,46,5,48,60,33,31,-7
-82,-9,-9,39,4,-29,-43,-34
0,26,-2,-50,-16,7,54,-33
13,-92,29,32,17,16,-25,-11
-14,-4,8,-8,-18,2,-15,-2
18,4,27,18,35,19,45,46
-33,-41,54,-12,14,7,2,-9
5,102,34,-24,-5,2,-10,-13
4,29,84,76,35,4,18,2
10,-128,-96,-49,-37,-15,-32,-9
-46,51,-4,14,-20,-29,-11,11
18,-28,-21,-31,-14,15,3,-49
-12,-8,-17,-71,-86,-9,17,5
65,74,29,34,-2,-4,-6,70
-32,-42,-25,30,-49,-23,-85,-61
-86,-28,46,73,30,3,-10,-34
82,-26,-25,-30,-75,-25,16,-3
6,-11,85,-6,8,35,68,45
22,86,-28,0,2,23,21,-22
35,-20,-79,27,27,-23,-19,29
-56,-26,-80,-75,-66,-9,17,26
-23,-13,28,83,94,18,-18,-47
1,-78,72,-20,-53,-7,29,4
19,61,-24,-2,-12,29,79,22
8,35,22,-4,19,-28,-97,-5
6,-13,-28,24,22,-18,-11,13
-1,32,-21,-67,-78,-27,-20,-41
-29,-16,68,111,81,46,61,5
85,8,-28,-23,-43,25,51,16
-24,23,30,23,-16,-10,-27,5
-14,16,-34,14,-11,2,-29,-23
86,-41,-24,-31,-30,-6,11,31
-82,-45,-4,-39,-92,-52,-52,-82
25,97,36,-13,0,33,22,49
47,-28,-11,-6,43,36,33,94
4,66,44,-10,-55,-7,-9,-41
3,-55,49,7,36,-3,49,-5
-34,-90,-91,-33,7,-36,-74,-31
-34,-70,-15,-60,39,-1,-90,-33
30,108,19,-21,-21,-33,39,100
-103,-52,1,10,84,12,-15,-77
61,66,8,-24,-85,-50,16,-31
-59,-40,31,-15,-3,11,37,58
-11,-46,-27,12,-55,-14,-84,-49
-26,20,17,5,8,6,-2,-51
-4,-26,-33,-101,-77,-3,27,77
-24,1,-37,127,3,-22,8,-37
45,55,-17,-24,26,41,55,15
-57,85,-49,22,33,-2,-48,-4
-5,-69,-60,-53,-3,12,21,1
11,86,67,52,17,-19,41,-17
-15,-81,72,63,25,18,-11,-11
86,59,-81,-52,-27,2,31,81
-67,9,-70,-17,20,-6,-90,-128
71,65,1,56,-54,11,44,101
0,-71,-74,-111,-92,-27,96,-15
-57,-1,78,127,73,7,-96,-59
-30,-43,37,5,-20,27,71,92
33,86,-57,-19,-77,-25,65,0
-61,-71,-113,-91,-100,-97,-128,-93
87,76,101,69,78,87,87,63
-31,15,-32,-11,-5,14,-6,-10
-16,5,19,-17,68,-6,-7,-47
26,-37,56,-73,4,-5,-46,-7
-18,-60,-50,-11,-92,-25,24,54
2,17,8,23,5,11,-23,-57
-58,-53,-34,-128,-74,6,33,-36
37,34,6,98,126,46,-28,26
-31,-40,35,-40,-35,-8,-4,15
19,-19,89,-41,-38,-15,35,10
-20,-128,-92,11,95,22,-33,-8
-107,59,22,-15,-60,-21,-16,-58
49,4,19,-50,-59,-22,-8,7
29,36,28,0,84,37,28,26
-20,-14,-53,-27,-60,-16,-37,-24
17,-55,-51,-81,-83,-45,-42,-11
-51,-2,26,56,97,50,33,-58
45,-41,23,-12,-52,-4,-36,32
28,18,51,46,12,-7,7,48
15,97,16,-31,61,-9,-32,-6
-68,-89,-38,-128,-128,-76,-67,-69
21,76,78,95,38,67,74,6
104,46,118,38,111,60,42,111
-55,-47,-35,1,-41,-20,3,-13
16,62,-44,-12,-5,-22,6,2
-81,-5,-84,-18,-39,-14,-5,-96
-22,-17,-66,-128,-72,-43,-30,-17
80,75,13,127,64,43,35,53
-1,-22,6,-83,-12,-16,-6,-3
-77,7,-95,-13,-12,-32,-30,-44
49,71,98,-62,-40,-15,-68,-16
-113,-60,5,-40,30,6,37,-45
123,34,78,127,127,127,109,127
89,81,-4,-70,-91,-52,-3,113
-83,-66,47,-76,-79,-17,13,-47
-15,42,5,-79,-22,7,15,-27
-44,-80,-7,-43,9,-31,-60,-32
-21,-4,-11,0,33,9,-41,-41
33,-15,-59,99,49,34,51,17
18,115,2,-48,-5,2,7,52
-36,-2,38,-14,-36,-48,-5,-34
85,11,-75,-44,38,18,-4,12
-62,-68,-56,-48,-91,-53,-64,-57
-62,49,47,51,14,31,29,2
97,11,15,-69,-70,-18,-76,-28
4,2,108,21,0,4,89,84
8,75,110,90,54,42,31,2
-25,-42,-41,22,38,-15,-17,-26
-30,18,-46,-7,5,-14,-23,-37
2,-7,-1,-17,-13,-23,-37,-29
8,-18,-7,-43,28,32,50,19
29,-35,16,2,-45,18,-10,29
3,26,-18,51,53,-7,19,4
-6,-55,-5,43,-15,17,-11,7
-23,11,-17,-33,-14,-29,11,-2
36,-3,-32,9,-27,-35,-52,-16
14,37,44,-13,-13,70,84,48
-43,-32,-25,-7,0,-21,-32,-40
11,16,32,82,58,20,-4,-6
26,19,66,-26,-28,-18,-1,-4
-5,-24,-60,-19,0,26,17,40
-36,8,56,-9,-12,-27,-15,-32
-7,-3,-45,-4,-4,-16,-12,-26
14,-40,-76,4,-9,-11,-18,6
-4,-6,-94,-16,-15,-8,31,16
-13,-1,-12,-13,-21,-17,-21,-23
-13,-5,13,22,-4,-40,-37,-16
20,-35,-36,-51,9,31,19,26
-7,0,62,103,16,-30,-8,28
2,-36,28,57,16,43,20,-1
-2,-24,42,-52,-21,16,15,12
16,32,51,75,15,9,-2,-21
-19,35,-25,-99,-28,-23,-17,-24
7,40,-39,-11,-12,-21,-21,-5
-22,17,-128,31,-9,2,-10,-16
-4,-10,82,42,-4,6,-2,-2
-6,-11,102,35,-5,-8,5,-4
6,10,-77,-46,-2,-17,-10,-3
5,-17,-63,-60,-10,14,0,7
7,-1,37,43,5,1,13,3
10,-7,75,73,12,-16,-1,18
-14,-30,37,-94,-30,-15,-13,-43
14,18,102,111,25,4,-5,10
-13,-23,-57,-44,-25,2,-4,7
-3,6,-51,17,7,-17,-14,-14
-10,-1,89,81,19,45,-2,-5
-10,15,39,50,22,-36,-19,-13
6,-10,-71,-106,-20,-6,2,25
10,8,11,44,16,29,21,12
-9,-7,-45,45,-1,-21,-6,-4
1,3,-25,-95,-45,-7,-8,-8
-2,-7,46,114,38,6,3,15
-1,-20,-52,1,-16,-12,-20,-35
-43,-14,-36,-92,-21,-14,1,-8
3,-7,-7,-18,0,18,5,-1
0,11,-30,37,10,-1,1,1
10,0,-112,-13,-9,-3,-1,16
6,20,96,25,11,1,1,3
-3,-8,-23,-42,-16,1,-4,8
0,6,-97,-48,-2,-13,-1,-8
4,17,24,32,23,11,4,2
-3,-14,-20,-18,-4,6,12,-1
14,22,12,-2,8,-1,0,10
2,-9,-35,-39,-6,-7,-4,9
-7,-1,-17,-47,-9,-10,-9,-31
-8,-11,-54,-4,-3,-11,-8,0
-8,-9,19,6,-2,-8,-13,-1
3,15,37,9,-2,20,9,0
-16,-24,-94,-57,-27,9,4,8
4,11,19,30,18,7,1,7
7,-14,-27,-15,-1,-5,3,2
-8,7,40,-29,-7,-4,-3,-6
0,-6,-6,19,3,1,-2,10
6,3,-20,-18,-5,-10,-2,-7
2,14,73,90,27,5,5,0
-2,-5,-30,-65,-1,9,-3,-12
0,-1,44,-41,-8,1,11,5
11,4,44,40,2,-3,-3,2
6,9,-16,-24,-11,1,-3,2
1,-5,0,29,-7,-2,-6,5
-8,-16,15,101,18,6,-1,-24
5,-12,-41,18,-15,0,2,3
-6,5,18,-8,-12,-7,-6,1
-7,4,19,-2,13,16,5,-6
-6,17,3,-3,-5,0,8,14
6,19,9,45,11,-17,-10,0
-6,-13,-30,-6,12,20,1,-1
8,11,2,5,-1,-9,-13,-3
0,-25,-48,-54,-6,-10,1,3
7,-13,3,-23,-11,0,4,3
5,-2,2,-35,5,-7,-5,1
-6,-11,26,1,-11,-5,2,-13
3,1,17,-54,3,7,3,-3
1,8,13,63,4,-6,-6,-2
-2,-19,-14,14,6,-2,3,6
5,2,27,-7,2,-5,0,-4
-2,5,31,-19,4,-9,-7,4
-1,-2,5,30,9,8,4,5
-2,5,-1,-12,-16,1,0,-1
-6,-8,-37,-20,-4,-2,4,-1
4,25,40,43,14,3,0,8
-1,2,-5,-107,-17,1,3,-2
-2,-9,-48,-2,12,1,-2,-10
-1,5,5,52,-5,-15,-8,-10
-2,-4,-8,-29,-14,2,3,5
-2,0,-44,-1,11,0,-4,-8
-4,-16,-13,-45,-2,18,3,10
4,-8,47,99,13,5,6,-1
7,-7,-4,-101,-18,8,13,7
7,9,30,51,8,16,10,2
-6,-2,-3,7,-11,-16,-7,-8
-5,2,11,-15,-6,-1,-4,-1
-4,2,1,34,-1,0,0,-1
-10,-6,31,43,1,-7,-4,-8
-2,-1,12,5,-2,0,7,1
0,6,42,-1,5,-3,0,0
-4,-7,-27,33,-6,-5,-12,-5
-1,0,-37,-92,-7,-3,-8,-2
