0,7,5,-9,0,0,1,0
0,-3,-6,2,-6,3,-1,-2
-5,1,10,2,2,-5,-1,-2
0,-9,-13,-23,2,-1,0,-1
-1,-7,21,15,-6,-2,0,0
4,-4,-14,4,10,0,2,2
3,-2,-6,-24,-1,-5,-2,2
2,-7,-9,3,-21,1,1,0
1,7,3,-19,-7,-6,-1,-2
-3,3,0,38,-6,-4,-1,-3
-4,0,-5,1,-1,2,1,0
-5,3,-10,0,-9,3,-3,-2
-2,-1,-2,-14,-23,-1,-2,-4
-1,2,4,18,27,3,1,-4
-6,0,5,-1,-3,-6,-2,-2
-7,-9,-4,-4,-2,-4,0,-1
-1,4,11,-12,15,5,1,1
2,-7,24,21,-20,-7,-7,-1
6,2,7,-1,12,5,1,-1
5,3,1,-2,-1,-1,0,-1
-4,-3,-2,11,5,2,4,0
-6,-3,-8,-19,-10,-2,1,0
-2,1,3,0,7,-2,-3,-2
-1,-5,0,-11,0,-3,-4,-3
3,-2,-10,18,-2,0,-1,-4
-4,1,-8,-25,-5,-5,1,-1
0,2,-13,12,1,11,10,2
0,-6,-5,-1,16,-4,0,0
2,1,7,-15,-9,-3,-5,2
6,-3,10,19,26,6,-5,-1
0,-9,-5,-2,-10,-4,-11,-4
-7,-6,-9,-7,-12,-1,-2,-3
-10,1,3,-8,-13,-3,-2,0
-7,-1,-10,17,16,4,2,3
-1,6,17,-1,-4,-6,-3,2
2,8,-19,-7,-2,-2,-4,1
1,-3,-16,-7,6,-1,-6,-1
0,4,4,-15,-10,-1,-1,-2
1,-2,-3,-3,-1,0,2,-1
0,0,-4,-6,8,-1,4,-2
2,-4,-3,10,-3,-1,0,-3
0,5,-8,-10,-1,-3,0,-2
-3,-4,-18,-25,-25,-7,-5,-4
1,7,21,26,29,-1,-2,-3
-1,0,-4,0,4,-4,-2,0
-3,-18,-20,-17,-14,0,1,-1
2,4,9,15,-3,-5,0,-3
-1,-3,7,-3,-7,2,1,4
-2,-5,-4,10,30,6,1,4
-2,0,8,-9,3,0,-5,1
-5,-7,-1,5,-9,-2,-5,-3
2,2,-9,-24,-17,1,-3,-4
2,-1,6,-1,-9,-4,-2,-3
5,4,-4,-5,-9,-2,0,0
1,-4,-3,-11,0,4,-1,2
-4,-1,5,12,12,5,1,-1
-6,-2,-4,-3,2,-1,2,-4
-6,2,0,-8,3,-6,-1,-1
1,5,7,5,-6,-6,-1,-1
4,3,11,5,9,3,-1,2
0,-13,-34,-3,-19,0,1,0
-1,-1,-8,8,6,4,0,-2
2,3,4,-32,6,-3,-1,2
1,20,22,50,-5,-10,-3,0
-10,-38,-27,-7,6,4,-4,1
4,-6,-2,-1,-1,0,1,1
-1,4,3,0,9,4,2,1
-8,-8,-10,-21,-20,-7,1,-7
-2,13,2,-1,-4,-3,1,-4
-1,2,15,5,10,0,0,-3
-2,-3,5,6,0,-4,-2,-4
1,2,6,-3,-5,-2,-3,4
2,0,2,8,0,-2,-9,1
-4,-5,-10,-27,-33,1,-7,-5
4,3,-3,26,18,4,2,-2
-3,-10,-8,-9,0,-4,1,-1
7,16,28,11,-6,0,1,4
1,-9,-9,-34,-36,-7,-6,-1
-5,-5,-12,18,44,12,-2,-5
-1,-4,-2,-2,4,6,2,0
-2,-11,-14,-3,-2,-4,4,-3
0,8,10,-2,-9,-4,3,3
-10,-15,-16,-11,-14,-14,-2,-3
-3,1,5,-11,-21,9,3,2
3,13,12,3,8,2,-1,2
2,12,18,19,14,1,-2,2
-4,0,-8,-17,-9,-5,-6,-1
-6,-2,8,18,9,-7,-8,-3
-2,-5,-15,-17,-14,-1,-5,-9
-9,5,1,30,10,-4,-5,-11
-1,3,-5,-13,2,2,11,2
3,-25,-24,-29,-11,-8,4,4
0,7,-8,-14,1,4,6,-1
-5,-3,2,13,9,-2,-1,-8
-3,3,4,-11,-1,-4,-8,-10
7,6,-3,1,-18,1,1,4
-3,-7,2,0,6,-5,-5,5
14,4,-4,7,1,4,3,14
-1,-9,14,22,-3,-3,-6,3
-8,-16,-23,-37,-18,-9,-4,0
-4,13,-2,15,12,2,1,-6
13,22,40,24,31,10,5,8
-11,-5,-39,-10,-9,-3,-6,-13
-4,-4,-28,-36,7,8,6,-3
9,-2,9,-6,-11,3,9,21
15,14,11,-11,-2,7,7,8
1,-53,-24,12,-1,-1,3,0
-8,9,52,65,11,-6,-9,-8
-28,7,-3,-28,-21,-11,-11,-25
10,7,3,6,7,2,5,8
-6,-8,-10,26,8,5,-4,9
-15,19,-11,-24,-16,-7,-8,-7
0,-49,-19,-4,-10,1,4,-2
19,14,12,-6,25,1,1,13
-12,10,19,-8,-11,-9,-10,-21
12,21,4,4,15,8,4,-4
-2,2,20,27,-8,-13,-15,0
-36,-3,-3,1,1,11,10,1
51,25,-15,-27,-20,-4,-4,27
-7,-31,-1,25,32,-3,-12,-18
3,9,-2,-26,-15,-2,8,-3
-8,-17,-22,-6,-12,-2,1,6
-19,24,17,-31,-21,-3,6,4
3,-7,-22,15,-27,0,5,-1
18,24,17,16,13,2,-3,3
-10,0,11,30,8,-1,-11,-14
-11,4,-1,10,22,2,-3,-9
-11,-23,-19,-31,-30,-13,-8,-14
10,12,-17,7,3,4,6,12
-16,-59,-25,9,5,-9,-10,-9
-1,-26,-32,-54,-35,-2,1,1
-10,9,37,24,23,-3,-8,-12
3,30,26,4,-2,7,2,-2
-29,-7,-20,-38,-88,-28,-8,-13
41,5,10,58,79,30,26,30
-14,-41,-12,-29,-53,-9,-3,0
28,20,17,13,22,11,10,3
18,10,0,-28,-7,-4,-4,0
-18,0,22,4,-28,-14,-15,-12
7,15,-5,-23,24,9,4,11
-11,-15,-26,29,-15,-8,-8,0
1,27,-1,-11,0,2,-6,-12
-1,-12,23,39,14,8,0,-7
6,23,-22,-25,28,8,12,7
8,-20,3,-6,-13,-12,-1,2
13,42,27,0,4,2,3,0
-28,-32,-38,-22,-13,-11,-9,-11
8,9,11,-38,-73,-15,-7,-2
-33,-8,-16,35,92,25,2,-16
25,-23,-10,16,19,6,12,18
-12,13,9,0,-20,-10,-7,-7
3,6,0,4,3,-3,7,11
-13,21,69,-11,-29,-7,-13,-11
11,-21,-16,0,13,2,-9,-2
-11,2,-1,-26,-5,-4,-1,-7
-13,-15,11,8,16,5,3,-9
8,-50,-37,-3,-14,-1,-2,1
4,45,31,1,4,5,3,-3
1,-51,-39,-18,-25,-14,-9,-1
11,29,56,41,26,9,6,4
6,-21,-41,-24,-4,-9,2,10
-29,6,-22,-28,-37,-9,-10,-18
35,25,29,20,-33,1,8,6
-1,29,39,25,-3,-7,5,5
-3,18,-15,39,77,15,4,4
7,-49,-54,-31,-20,-13,-10,-7
-12,62,55,-3,-7,-6,3,-2
6,-2,0,-11,-12,-11,-15,-3
3,-24,-53,-25,-41,-3,27,9
2,-25,84,-3,3,-2,-8,-8
8,58,-21,4,30,7,-12,-1
-16,-43,-15,2,6,9,6,10
-19,-38,-84,-46,-32,-16,-16,-13
-11,14,-64,29,41,11,8,-4
0,-17,41,59,28,13,11,-2
-28,3,-17,-48,-11,-8,-13,-14
-14,-45,11,15,-24,-9,-11,-7
-37,-86,-73,-35,-27,-9,4,-11
19,2,49,-12,-46,-1,-10,7
10,68,25,62,61,15,12,8
-22,92,119,18,-14,-13,-12,-21
34,-12,-47,-6,-7,-11,6,14
-12,-56,-102,-72,-18,11,14,6
16,-4,7,53,-18,1,-5,1
1,-66,-69,-31,-20,-8,-15,-5
1,117,127,24,29,11,6,8
2,-32,-70,-31,-4,-8,1,2
9,-15,-11,-8,-13,-11,-9,-5
-10,31,26,-7,-2,-18,-2,-10
31,43,44,11,-4,7,-3,13
10,45,127,30,5,7,30,10
-37,-82,-54,3,10,1,-20,-17
12,53,36,-35,-29,-4,2,4
1,7,20,22,8,6,1,3
-4,13,-12,-12,11,7,2,-2
34,37,-5,13,-12,-3,4,15
-26,-31,-13,7,24,4,1,-3
8,-18,-33,-18,-16,-12,0,-4
10,60,75,-1,-59,-24,-28,-16
6,71,-10,71,78,51,25,14
32,-14,-11,-1,-19,9,3,20
-57,-128,-128,-27,-3,-1,-20,-23
8,-59,-53,12,15,-7,8,12
40,92,38,-61,-52,-18,-14,3
7,87,90,50,24,5,3,-2
-35,-22,70,-17,-5,-5,-12,0
-32,-78,-69,-14,17,-6,-20,-26
-7,-39,-99,-71,-18,-10,-15,-10
22,39,-19,41,21,-3,10,3
35,81,-27,7,-18,2,-3,18
2,59,33,1,15,0,8,8
-54,-69,55,-44,-51,-28,-29,-32
23,-34,-114,-17,56,35,8,10
7,-23,72,66,15,9,8,14
-19,82,34,36,-75,-20,29,7
15,-32,-98,0,91,41,13,13
10,-37,-51,-14,-58,-2,1,5
-4,28,84,-3,-11,7,-6,-12
9,-66,-113,-44,-1,-3,-8,2
25,44,113,28,-28,-21,15,13
-48,-117,-40,-35,-16,-13,-48,-32
38,87,29,55,86,33,57,14
-12,-39,64,-20,-8,-4,-2,12
8,-18,43,-24,-13,-19,-12,-3
27,58,65,5,-7,-3,-15,8
-12,20,19,-4,-29,-25,-23,-22
-19,56,7,65,68,40,24,6
38,-8,-10,-51,-33,-28,-7,12
-21,12,92,10,0,10,18,12
-8,-8,-57,-99,-83,-26,-29,-23
16,88,62,112,59,8,-10,-7
27,38,77,57,42,24,16,9
-11,-12,-73,-54,-3,4,34,6
-18,-77,-110,-62,-10,-23,-2,-13
-27,-128,-125,-54,-31,11,-29,-27
-4,-29,3,23,-19,-4,-13,-5
-5,22,27,-10,-23,-8,8,8
-20,-83,-116,81,45,17,17,-6
-23,-96,-73,-97,-33,-24,-40,-9
-27,57,-7,-4,0,7,13,4
7,-1,11,10,13,8,-12,-4
-13,54,84,-72,-58,-32,-18,-5
13,-75,-20,88,72,8,21,5
-20,18,-57,-7,-6,-8,1,-16
15,-33,-34,-11,-58,-8,-6,1
-3,-26,-28,26,15,11,10,2
17,15,47,-24,-6,-2,5,3
-2,60,50,56,18,5,7,2
13,-63,-45,-62,-52,-24,-5,-7
56,115,127,60,22,5,4,23
-23,-61,-81,-63,-31,7,8,5
-9,-85,-128,-30,-11,6,22,13
-5,-43,75,54,33,-3,-31,-24
11,-83,-60,-6,8,3,-8,13
30,-44,-26,-10,18,7,14,6
14,26,-11,-52,-79,-23,-12,8
-3,39,-13,85,95,43,20,3
-59,-94,-89,-64,-36,-10,-16,-13
4,-6,-84,44,3,-19,-27,-24
-5,-5,74,-29,-13,-16,-3,-8
1,20,56,35,-23,7,12,14
-10,-69,-89,19,-22,17,32,5
41,127,92,48,22,8,8,8
-48,-52,-99,-48,10,23,-1,-9
28,15,-20,-70,-39,-31,-15,14
-2,-48,-46,-1,5,-1,-12,-6
28,39,-22,4,8,-6,12,2
-17,8,34,48,13,-21,-21,-16
0,63,45,20,13,20,35,28
-12,-38,-97,-60,-20,-9,2,1
33,27,40,-53,-28,-10,-24,-10
2,-41,22,-97,-39,-11,-10,-8
-34,43,7,100,63,16,51,-12
32,13,33,63,20,-26,-81,-19
-60,-98,-96,-111,-23,-13,-11,-15
38,-27,13,127,64,52,35,22
17,27,1,-47,-33,-24,-23,1
-18,7,-22,31,23,-12,6,-7
-11,35,35,-33,-25,18,40,34
43,36,66,-11,8,-12,-1,5
-21,-95,-108,-9,14,0,-18,-12
28,39,52,65,38,26,38,13
-48,-59,-49,30,9,-1,-37,-29
-27,-72,-50,-67,-13,7,27,5
3,-22,-57,36,2,0,-25,3
12,-59,-73,-62,8,1,26,23
14,103,93,115,16,10,4,-14
-49,-53,-88,-46,-1,15,5,-19
-34,-74,-80,-65,-36,-32,-36,-25
-18,-55,-38,-2,-20,8,29,8
10,-48,102,-23,-7,-8,-14,5
-20,-13,-18,110,37,-4,-39,-25
-6,104,101,-30,1,-3,-8,-17
14,11,-30,-49,-19,-4,-2,1
-4,17,3,6,-19,-12,-16,13
-31,-34,-42,-7,9,22,54,-2
33,-56,2,-75,-35,-15,-25,9
-15,46,25,4,-32,-8,-10,-6
-7,-81,-92,4,10,-8,8,-10
21,36,31,-2,-6,-13,-29,-1
-21,-15,-18,-26,2,11,4,-10
5,-7,26,-7,-22,-1,-12,-3
-24,25,-21,6,28,15,3,16
10,33,52,-3,-15,-16,-7,1
12,52,12,38,-8,0,23,2
2,38,76,3,1,-4,-9,0
-9,7,-27,-16,-12,-14,-14,-14
-3,-38,-7,-2,-4,6,2,6
-3,-31,42,27,8,-11,-2,-2
23,88,66,39,11,18,-2,-12
16,78,63,-4,10,-10,10,-1
14,-48,-67,-26,-26,-22,-17,-4
-3,-20,-26,10,32,38,13,2
-12,35,-18,-19,-16,-7,24,13
7,-63,43,2,17,3,-2,2
16,40,19,40,-10,-1,2,16
-11,-28,-25,-1,-3,-12,1,-7
-25,-24,2,-21,7,-11,-22,-22
8,12,13,-5,-22,4,6,6
-6,-9,-43,-5,-6,-7,-12,-6
4,63,120,16,7,-2,-7,-7
-13,-10,-70,14,5,0,1,-2
0,10,3,-5,-15,-13,-6,0
7,0,-5,11,3,1,-1,3
-1,-11,8,2,-5,-8,1,0
8,-5,21,9,3,-3,-6,1
1,16,-42,-4,2,9,9,3
0,38,72,-8,9,-4,-12,-6
3,-6,-96,-20,-9,4,3,0
-6,-5,25,17,5,19,19,-2
-6,-7,-12,23,4,-5,-5,-5
-3,-40,-5,-6,8,-1,-2,2
5,7,67,-3,3,4,-4,3
1,5,26,-8,-3,-6,-10,-5
-3,5,-61,-46,-12,8,11,-3
-3,8,-6,40,10,-8,2,-4
-6,-5,-14,12,-6,-19,-3,-1
-3,-7,29,-16,14,-1,0,4
1,-3,27,64,13,0,-2,1
3,5,-67,-13,-7,-10,-8,-1
-12,22,-2,-59,-15,2,1,-3
3,17,39,53,16,4,-4,-9
-1,-15,-56,-67,-24,-14,-12,-4
-1,-21,9,42,16,20,9,-4
11,-10,5,33,3,-2,7,11
-15,-7,-20,-4,-8,-12,-6,-5
-9,-17,-6,-96,-39,-31,-18,-35
-13,7,-27,127,12,1,-10,35
40,5,-6,-77,1,17,25,29
-14,-27,-53,-43,-15,-7,-6,-8
20,41,111,-6,15,17,20,16
-6,-44,-85,-66,-13,-8,-6,-32
-5,0,36,89,15,-16,-21,-8
5,-2,-4,-85,-4,-14,-9,13
-8,-6,5,30,12,10,-2,-7
-3,12,-46,-88,-6,1,6,6
-8,-1,-49,-1,-7,0,-4,5
1,-10,-18,74,4,-5,-6,-7
1,15,18,43,-9,-4,-4,3
3,-1,-7,-32,-11,6,3,-1
-6,-7,-26,35,10,3,7,1
5,18,53,-18,-1,4,-3,-14
-6,-10,-46,-8,0,-1,-4,4
11,-2,4,11,12,10,7,2
-1,-2,48,-25,2,1,3,-9
-4,-11,-2,5,-11,-8,-5,2
-12,-17,21,56,5,-14,-12,-12
14,-6,38,-17,2,31,23,10
-8,-28,-23,-38,-7,-2,-4,6
2,-4,11,62,10,4,-1,-1
0,-3,-52,-32,11,9,7,7
-8,13,81,59,0,-14,-13,-16
-10,-10,-57,-1,-6,-4,-4,-12
-6,8,-8,-17,-2,7,3,8
-5,14,11,9,1,-2,-1,3
-7,-5,21,-4,-4,-14,-1,-6
-7,-14,-84,-47,-5,2,0,-7
1,5,22,-9,-5,2,-4,1
4,6,14,45,7,6,-1,2
-3,-1,16,-56,-13,-12,-6,-5
1,3,-11,16,1,-7,2,-10
2,4,20,13,9,2,1,-8
-5,-18,-44,-20,-1,-1,4,-3
6,2,8,-1,-10,-4,-5,5
-5,-1,-2,-12,-3,-4,-5,1
-6,-15,-48,4,-3,0,2,3
2,0,20,40,4,4,5,-3
-3,1,4,-98,-23,-17,-9,-7
4,-3,-4,76,10,2,-2,-6
9,15,10,-3,3,2,2,6
-3,-9,2,5,-5,4,1,0
-5,5,5,17,23,7,-2,4
-5,-3,-19,-20,-17,-10,-10,-3
1,-1,-37,-55,-10,0,0,1
-4,2,29,25,-10,-1,2,3
-4,2,-1,27,-7,-10,-4,0
-1,4,36,4,2,13,5,1
-5,-9,-81,-46,-1,-2,0,-3
0,4,6,-40,-8,-5,1,-3
-3,9,24,42,-2,-1,7,2
-1,1,-16,-24,12,-2,-1,-2
3,-4,0,2,-1,-8,-9,0
7,-1,-21,-9,3,4,0,1
1,-2,-10,3,2,5,-4,-1
