-3,-9,-12,-25,-2,-3,-1,6
-5,-5,-16,-5,-9,0,-2,3
-4,1,3,-7,7,-3,-2,1
2,2,7,-3,-5,-5,-2,-3
2,6,-4,2,-4,-3,-3,-1
0,3,-9,1,-2,-1,-4,-2
2,-7,1,7,3,0,-2,-3
4,-3,-1,-10,0,2,-1,-2
0,-3,10,0,0,-2,0,2
-2,1,18,0,3,-2,0,0
-6,-1,-20,-31,-14,-1,0,-3
-3,0,24,32,16,4,4,0
-3,-3,-1,2,0,0,-1,-2
0,-2,-7,3,0,-2,-1,-2
0,3,-4,-2,-5,-4,-1,0
0,0,-14,-45,-18,-4,-3,-2
0,2,17,35,-1,-1,1,-4
-3,-5,-34,-44,3,-1,4,1
-7,-8,25,42,1,-1,-3,-5
-5,-3,-9,-3,-4,-4,-3,-3
-2,-3,-7,-16,-4,-2,2,-2
-1,0,1,5,-6,0,-2,-3
2,3,-2,-3,2,3,-3,2
2,-3,-1,-3,2,2,-4,2
2,-3,2,5,1,-2,-4,1
2,-3,-21,-17,6,-2,0,1
4,0,23,28,-7,0,4,-1
2,-2,8,1,-5,-3,-1,-4
2,-5,-3,-13,-1,-3,1,-1
-2,1,18,12,7,-1,-4,0
-4,4,-5,-13,-5,0,-3,3
0,5,-9,-6,3,-2,-2,1
-3,1,5,-6,-26,-8,-3,0
-3,-1,26,31,-5,5,-3,-1
1,1,-14,-3,-7,0,-2,0
-1,-1,0,3,-8,0,3,-2
-2,-2,-21,-10,5,-1,0,-2
-4,-2,-3,6,7,-3,1,-1
-3,2,12,2,6,1,1,-1
-7,-4,5,-10,-4,3,2,-2
0,0,-1,4,4,1,0,-6
3,4,-7,-1,-4,0,-1,-1
11,-2,-6,6,4,-2,-1,0
4,-1,-12,-10,-6,-5,-3,0
-6,-3,1,-11,0,2,-2,5
-7,-3,23,27,1,2,-3,2
-5,-2,-7,-16,3,-4,-4,1
-3,-1,-23,-17,2,-2,4,2
-4,1,24,31,6,-3,0,-2
3,-5,-3,-15,-2,-4,0,-4
3,-3,8,-3,-8,-2,-1,0
5,-2,-18,-11,-16,0,-2,-1
4,3,-3,4,12,8,-1,0
-6,0,13,22,-4,-2,-1,-6
0,-6,-2,-8,14,6,2,-2
1,-2,3,5,-4,-3,-2,-4
0,-2,-14,-12,0,-4,1,2
0,0,-3,2,-11,-4,-3,3
-3,1,-14,-17,-11,-5,-2,4
-3,0,16,11,10,0,2,3
-3,0,4,11,5,-2,0,-3
1,-3,-14,-12,-1,0,3,-5
-1,-2,2,5,-4,-1,1,-4
-2,-2,1,-9,1,0,-2,-2
-4,-3,4,1,-2,0,0,-3
-5,2,-11,-8,2,-3,-4,-3
-2,2,1,-4,0,-2,-4,-1
0,0,-4,1,2,-2,-3,-2
1,-2,-14,-15,-13,-2,-4,0
5,-2,0,4,4,3,2,0
4,-3,-2,-2,7,1,-2,-3
1,-2,0,-1,2,-2,0,0
-4,0,8,7,2,1,0,-3
-3,8,-2,-3,-10,0,-1,1
-4,2,-4,-4,19,5,-1,1
-3,6,18,6,-19,-5,-3,0
-1,-5,-23,-26,-10,-4,-2,0
3,0,6,-2,4,-5,4,1
-2,-4,-5,-4,-9,-2,2,-1
-3,-4,1,9,12,3,1,-5
4,-2,3,1,-5,2,-3,-3
2,-2,-9,1,-5,3,-5,1
-2,0,-1,4,-4,-2,-1,-3
-4,-5,-7,-4,-3,1,-4,-1
-1,-4,-1,0,2,-1,-1,1
-2,-6,-5,-11,5,-4,-1,0
2,0,2,-2,-11,-10,-2,-2
-1,0,1,1,-9,-3,-1,-2
0,5,1,0,11,2,0,0
-1,0,-3,-14,-4,-3,0,2
-11,-3,7,26,5,2,-2,-5
-6,2,-3,5,20,5,-4,0
-4,0,2,2,-12,-7,-2,1
1,-3,-4,-1,10,6,9,-4
2,-2,-3,-9,-4,-5,-6,-1
6,-3,-4,-7,-10,-2,-4,1
1,0,2,4,0,-2,-4,-2
-3,7,9,8,2,3,-6,-1
-3,-3,-20,-20,-6,0,5,1
0,2,10,10,7,3,4,1
0,-3,-4,-13,4,-5,0,2
2,-5,-4,-12,-15,-3,4,-2
0,-6,-5,7,2,2,0,-1
-2,4,14,-12,-17,-7,-3,-1
0,-6,-2,11,3,0,-2,-4
-3,2,-11,8,19,1,-3,-4
1,2,2,3,8,2,2,-2
-4,-7,-12,-7,2,-2,-2,-1
0,9,10,-2,-9,-1,-3,0
-1,-2,-6,-7,-6,-5,-5,3
-4,1,8,-13,-14,-10,-4,2
-3,-1,0,8,0,2,-1,-3
-8,-2,-3,1,-2,2,-3,-4
-1,-4,2,7,-17,0,-8,-1
12,4,2,-1,15,15,7,2
-1,-5,-3,-1,-10,-6,5,1
2,0,-14,-2,16,0,1,2
7,-6,-3,-9,-6,-4,2,3
-4,-7,-14,-11,-8,-5,-3,-1
-9,-2,4,-5,-6,0,-4,-6
-2,-8,-18,0,-8,-2,-2,-6
0,10,16,10,3,-1,-1,-4
-1,7,15,-7,-7,-1,-3,0
3,0,-3,17,13,0,-2,2
-3,1,19,-13,-15,-5,-3,0
-5,-11,-13,-6,-10,-3,-4,-1
-10,-8,-6,-3,-20,-6,-5,-6
4,2,-1,2,22,5,0,-3
13,-4,-6,1,8,-1,2,5
8,4,-2,4,9,3,3,3
-14,-2,7,6,-1,0,-2,-3
-2,4,-5,-2,-1,2,1,0
0,-7,-5,-3,-9,-3,-2,-1
-8,-2,7,0,22,2,-1,-2
2,-1,-18,-8,-20,-5,0,3
-17,3,8,13,2,-2,2,-3
5,-4,-26,-25,13,1,4,0
17,-8,17,23,-7,6,3,6
-1,-1,13,-14,2,-2,-4,-6
0,-4,-13,14,-9,-10,-1,-2
-11,10,18,-6,0,5,-2,-9
-9,7,1,0,5,-5,-2,-8
10,4,5,4,-8,-2,-3,6
1,-7,-5,-13,-11,-2,-4,-1
-7,-9,3,2,-8,-2,8,2
4,-5,-1,-10,-19,-3,3,7
-17,-9,-23,12,25,10,-1,-8
1,1,-5,-12,-8,-1,-6,-4
18,8,4,10,8,2,-2,9
-17,-6,-9,-16,-4,-4,-4,-4
5,11,-7,-5,-1,-5,0,2
-3,-5,-12,-5,1,-1,-3,0
-18,-7,11,12,10,0,-3,-15
12,-2,2,-17,-6,1,5,3
2,-6,12,-1,-6,-4,-1,-4
7,1,19,3,19,5,2,4
5,3,3,28,-1,-2,-3,1
-4,5,-10,-3,-5,1,0,-1
0,-3,-3,-1,-11,-5,-3,-7
2,2,-5,-12,-3,3,-1,-6
1,-1,0,-10,-6,-1,0,1
-7,-3,-4,1,9,-3,-3,2
1,2,-2,3,-3,-3,3,6
-7,-3,-2,-1,-2,-5,-2,-3
-5,-2,-5,5,5,-2,-5,0
-4,2,-3,-5,-13,-3,11,-19
22,4,0,7,11,-3,-26,15
-9,3,-2,-2,-3,2,16,6
6,-14,-3,-6,-2,2,-13,-2
6,5,-1,-4,-9,-4,-3,2
-13,-3,7,-5,-12,-8,6,-12
-5,-7,-6,0,42,5,-6,-3
-1,-5,4,12,-2,4,11,5
-8,-5,0,2,11,4,11,-3
-1,0,-5,-15,-11,-6,-15,1
5,9,1,6,-32,-2,-5,3
-9,6,-23,-21,-7,-5,-4,-9
32,0,22,-3,9,9,7,25
-9,-5,-17,30,13,-5,-5,-19
-6,-12,11,0,-10,5,12,-37
-13,10,-18,-19,-5,-11,-37,24
31,-1,-5,-2,-14,-2,13,35
-1,1,-7,-24,8,5,2,0
0,4,10,2,3,-2,3,1
-5,-4,6,11,-1,-3,4,-23
-54,-13,-12,-7,-7,-14,-27,-34
50,18,26,7,19,10,28,28
10,-1,-40,-5,-13,-1,14,16
-24,-13,3,-13,10,7,20,-15
-12,15,-2,8,1,-1,-38,-10
-2,-32,1,-5,-9,-5,-12,-23
0,5,-4,-33,-14,0,16,21
-17,0,0,9,11,16,19,14
20,31,10,9,12,11,2,-2
-1,-31,-11,-2,-2,-3,7,-35
19,-1,2,2,-11,-19,-30,45
-44,-14,6,28,26,13,40,-14
32,21,-12,-47,-22,-20,-42,-15
42,45,34,52,22,31,45,60
-23,-21,1,18,9,-3,-16,-19
23,20,6,-24,-7,1,4,-50
-40,-28,5,-31,-15,-10,-26,48
-10,-15,11,15,-28,-7,7,-6
16,27,1,42,19,-3,-18,-32
9,46,-13,-8,13,5,5,21
-53,-79,-16,-44,-78,-37,-24,-72
80,20,-27,7,37,11,-12,94
-38,-44,4,21,34,13,12,0
19,45,34,22,-10,-8,-35,-25
-11,-1,-7,-40,8,19,81,-2
-48,-20,-22,23,-3,-15,-46,-39
-3,-25,-2,-23,-12,-4,-9,-37
71,0,-18,-2,-30,-12,12,87
-12,-9,6,36,24,-4,2,-5
-14,8,12,-32,-20,3,9,2
-16,15,-20,-42,27,-11,-27,-32
-35,-20,38,-14,10,-10,-71,-60
29,-3,-31,96,-25,3,53,63
-27,-1,8,23,-23,4,29,-1
27,59,2,-54,-65,-20,-35,-4
-13,-22,12,6,-9,14,54,33
-41,27,-6,0,72,-11,-109,-128
-34,-6,-25,-56,-5,5,63,31
76,75,73,69,13,31,84,90
16,-51,-7,-49,-43,-39,-84,13
-32,-14,-12,40,-14,12,65,-3
-26,-67,-41,-45,-106,-24,35,-119
-4,45,23,48,74,26,-105,20
58,58,13,17,-13,14,92,101
-10,11,3,2,-8,16,-19,-22
-55,-3,-69,-46,72,-30,-105,-86
-41,15,10,-77,-125,-28,112,62
59,-79,0,91,57,22,-41,-91
-23,6,11,12,3,-12,-30,21
32,20,83,26,8,25,65,104
-29,-20,-85,-47,38,-1,40,-105
-7,46,26,-25,-68,-43,-85,7
17,-48,66,42,57,20,-3,-18
55,20,21,-6,-3,-9,23,87
1,3,3,3,10,5,-39,-33
-31,-36,-51,30,-35,18,127,6
33,85,-13,-51,-5,-2,-25,13
2,-66,-41,-30,9,-12,-83,-40
-32,-21,-28,25,10,3,22,3
34,60,2,37,82,45,28,-9
8,16,10,-12,11,-12,-48,-17
-79,-5,14,-55,-17,-9,82,-6
10,-110,-38,14,58,-19,-121,-23
7,19,7,31,-7,2,71,34
22,5,-54,-14,5,39,86,3
-25,-44,1,2,15,-11,-9,-40
-69,-24,10,-114,-127,-24,50,-128
39,20,32,13,12,-13,-92,91
38,42,-95,-4,-82,-28,-13,45
-35,-22,-19,-62,-27,-11,-27,-74
-15,44,70,109,53,73,-55,-7
7,-11,-29,26,-3,-4,89,50
36,48,73,-28,-40,-1,34,26
25,24,-19,-21,-36,-24,-27,-46
53,-37,-60,-9,-11,-25,10,71
-11,-4,11,-97,-31,-43,-107,-74
-42,-18,-7,-13,83,13,-88,-2
0,57,69,127,62,-1,-39,-39
-18,-43,-12,-37,-29,8,106,57
-30,-2,-14,-49,-55,-25,-52,-72
27,18,57,-26,-37,-4,43,102
-7,22,-59,-43,-56,53,-32,-51
-8,10,5,41,46,-29,103,123
-72,28,20,39,18,5,-12,-117
9,-69,-50,41,7,26,56,46
-64,13,28,-90,-82,30,61,-3
85,79,71,-5,57,-11,-96,76
-73,-73,-25,10,-4,34,64,-23
-23,1,-49,-5,22,-43,-115,-95
21,49,20,73,9,27,26,86
-40,20,-20,-71,-64,-28,41,-41
52,33,1,-80,5,-12,74,67
64,20,66,28,39,34,-24,-2
7,24,-45,-111,-85,-62,5,46
-20,-48,-65,24,77,0,-120,-63
-20,34,58,38,99,70,95,3
21,-7,-36,-14,-41,22,-2,-45
62,76,122,64,38,16,41,54
47,3,-20,47,-35,68,35,72
-69,-13,-56,-114,-52,-40,-67,-94
-20,-56,39,47,34,13,112,52
25,-34,16,119,17,15,-2,-17
31,-106,-31,-94,-94,21,105,-57
-55,-65,-104,-62,11,-53,-124,56
32,119,48,83,-47,10,77,-29
49,-92,-26,12,-7,46,74,102
17,17,-2,-2,-4,-11,41,8
-8,41,72,-34,-72,-11,44,-10
-32,3,-31,-19,-4,8,-90,-95
-3,48,40,127,78,-21,-116,44
15,-95,-15,16,-99,18,-30,7
37,-13,-37,-31,21,-23,-60,18
-86,-19,70,77,59,25,68,1
-52,-93,-64,-85,34,16,-29,-98
64,127,61,92,-19,1,45,48
70,3,64,127,74,50,-4,64
-91,13,-11,-20,-37,-82,-2,-33
13,-19,-92,-118,32,17,26,-6
-43,-53,22,6,8,-97,10,-26
-2,14,-22,9,-39,7,-128,-58
-11,-11,-61,-109,-68,8,115,5
72,110,42,127,33,59,1,40
36,13,36,-82,0,27,56,25
-16,0,-5,-2,-33,-53,0,-32
-36,-11,-26,-48,1,13,34,-15
-59,-28,-25,-111,-72,-45,36,-128
65,85,34,19,75,27,-47,57
-50,33,58,114,41,29,-28,-10
4,-21,-44,65,38,-14,-89,-24
30,21,-1,-108,-117,-98,-6,46
11,63,81,127,127,127,23,-93
57,32,-5,45,7,13,82,114
-1,20,12,-53,-83,-118,-128,-68
-71,-3,62,15,18,15,-7,-4
-23,-16,-43,-38,15,-2,-39,-93
5,-60,-36,57,31,-36,56,-15
-11,-18,25,-60,-56,108,127,121
-68,-96,-52,47,82,-16,-77,-52
-47,46,47,-128,-128,-101,-56,-35
-29,0,13,51,43,31,43,-3
22,-83,-73,-107,-58,-52,-5,-42
21,38,61,62,64,65,68,62
-51,20,-38,-14,-11,-94,-65,-41
-85,-6,101,-59,-75,6,-41,-115
-16,-87,47,16,64,-53,-125,74
66,127,88,88,67,12,13,-3
-17,-104,-53,46,-103,26,26,5
-10,-38,-114,-128,-103,-89,-59,-64
14,17,-39,71,-23,53,37,31
38,48,-95,91,-12,10,79,-37
-50,-66,39,-16,2,-51,-73,86
10,-20,-126,-62,-34,14,-3,-15
7,-21,-59,-15,43,8,21,-60
-33,-17,-22,-37,-94,-45,-36,-30
23,33,-53,18,64,44,53,16
6,1,84,27,2,14,6,12
26,48,127,-18,-24,-16,7,6
-33,-27,-32,-71,34,27,49,-11
-42,-20,2,-85,-45,-43,-100,-125
98,63,36,92,113,90,79,123
-11,-32,-15,-34,15,-1,22,0
-13,-23,-21,-42,-42,-56,-44,-11
-11,-11,-30,-44,-1,56,28,-10
-14,-14,-14,-33,-31,-11,9,-24
11,9,-7,29,-19,-16,-32,-7
10,-31,14,-2,14,49,-2,24
-4,39,76,98,23,-23,17,1
2,-3,-43,-6,-14,3,7,7
2,3,39,9,17,14,25,2
-15,-21,-37,-51,-39,-50,-65,-13
-6,16,-15,19,-10,1,11,7
-2,-20,6,-16,24,2,15,-10
10,-12,14,39,15,-49,-47,-14
8,3,24,-6,-5,7,16,10
6,2,-22,14,3,59,29,21
4,-7,5,7,19,43,32,9
4,7,-95,-10,-6,-29,-19,-9
7,-9,-18,25,8,53,-4,17
-3,-17,71,-4,5,13,59,27
-24,-14,-120,-9,-37,-48,-33,-58
9,27,-50,24,8,45,30,42
-3,-13,93,19,-7,-27,-14,-12
0,-6,-41,-2,-10,-27,-20,-5
-12,4,-84,-91,-40,-14,0,-11
18,26,-106,93,68,7,-5,3
-10,0,27,3,17,-3,5,2
21,13,65,13,-10,2,-19,-8
-1,4,127,3,-18,-17,-3,5
-4,-5,121,-52,0,10,5,-6
0,-4,65,7,-4,-5,-5,9
-5,10,66,17,21,-3,4,-4
-5,-15,60,2,-15,-15,-15,-1
6,10,30,-55,-17,13,7,17
-1,2,8,-25,-5,0,7,-6
-12,9,-12,-14,-17,-28,-31,-9
9,9,40,18,1,35,22,11
-3,-14,55,12,-12,1,1,-8
-6,-10,-39,-19,-13,-26,-13,0
-4,0,-5,19,-2,-26,-11,-7
7,10,-17,-24,0,12,-1,6
2,1,32,-2,4,9,13,-1
-1,-2,-106,-22,-34,-21,-17,-9
-3,-22,-106,-43,25,12,6,-1
-4,-13,-24,39,11,-3,-2,2
-6,6,-34,27,-18,-7,-2,-10
3,20,62,95,5,0,-10,4
-8,-12,-37,-13,5,3,-2,-9
2,11,-1,-8,-2,-7,-4,-4
-2,-16,-40,5,3,2,2,-3
6,-3,-20,11,-4,2,2,0
2,1,-7,53,13,1,5,16
6,4,-16,20,-13,-9,-8,-19
-5,5,35,36,14,1,4,4
2,23,34,20,11,-3,1,5
-17,-10,30,63,-15,13,1,-2
