12,-1,5,-11,8,5,4,7
-6,-2,11,12,2,-5,-1,-4
3,-3,-40,-12,-6,-5,-2,0
-1,0,-4,2,-6,-6,-1,-1
-2,-1,-1,4,7,0,0,-5
3,-1,11,-6,-11,0,-1,0
-3,-5,12,9,-2,2,0,0
-4,-2,-9,3,-2,-4,-4,4
-4,1,-6,-14,-14,-2,-2,2
-6,3,5,0,14,-1,-2,0
-5,0,1,9,11,0,-2,-6
1,1,19,10,6,0,1,-3
-6,3,20,16,2,2,-3,-4
-2,-16,-39,-31,-28,-7,-2,1
4,0,1,-2,-3,-3,-2,3
0,1,5,-3,2,-1,-1,-5
0,2,13,-1,-1,0,-3,-4
-2,-3,-19,-8,0,3,-2,-3
12,4,10,2,-4,-1,-2,6
3,-2,-3,0,-4,1,0,5
-4,0,-4,2,-1,-2,-2,3
-6,4,1,0,3,0,0,-3
-7,-1,8,-1,-5,-3,0,-5
-7,3,23,5,-3,-7,-2,-3
-1,-6,-12,6,16,2,1,0
5,-4,-4,-6,4,0,4,4
-3,-4,0,1,1,2,0,-8
2,-1,-3,3,-1,3,-1,-5
-1,-2,-10,-8,0,-4,-3,-3
-5,1,-6,-4,-9,-8,-6,0
-3,0,-1,-6,-9,-3,-1,1
2,6,4,11,23,2,2,0
-4,3,11,-9,-3,2,3,2
-6,-12,-8,-5,-13,-10,-7,-3
4,9,23,24,19,9,5,1
-3,-12,-42,-13,-3,2,0,-2
1,1,-6,-4,-6,-2,2,-4
2,1,6,3,7,-1,0,-4
-1,-4,3,-7,-10,-4,-5,0
1,-2,0,-2,-6,-1,-6,-2
0,-6,-6,-4,4,-6,-5,-2
-4,4,3,-3,-8,-1,1,-5
-4,-2,-8,2,-1,-2,0,0
-5,2,-5,-10,-5,0,4,0
1,-2,-12,-13,-10,-1,0,2
-1,-1,15,12,4,1,-1,-1
-1,0,-4,1,6,-2,-4,-1
0,0,5,-3,-18,-2,-3,-2
0,-5,-8,3,-10,1,-2,0
4,2,-2,7,20,7,2,1
-2,-8,-4,-5,-9,-3,0,-4
-1,-1,-1,1,8,1,1,-1
-4,-4,1,-14,-3,4,-1,-3
0,0,-6,17,8,3,0,3
-8,2,2,-1,-7,-3,-2,-1
-5,-1,4,-1,2,-4,1,0
-3,-3,-10,2,9,-3,1,-1
1,2,4,-11,-11,-2,-2,1
2,4,2,5,2,-2,-2,0
3,0,-5,-1,4,-2,-3,-1
0,3,8,4,1,1,-5,-3
1,-3,-1,-4,-6,-1,-1,0
-1,-7,-9,-2,0,4,1,-1
10,-1,2,-3,-2,2,5,8
-4,0,1,-1,-7,-5,0,1
-1,0,-3,-7,-7,-4,-1,-3
-3,-1,4,-4,-4,-1,-3,-4
-4,2,2,-14,6,2,-3,-6
0,-13,-15,15,-2,-3,-3,-3
1,2,23,22,0,0,-3,-3
2,-6,-28,-37,-7,-5,0,-7
-1,0,-9,4,3,0,-2,-4
-6,-7,-18,3,5,0,-1,1
1,18,23,17,-13,-3,-2,6
3,2,-5,-29,-16,-3,-1,5
-8,-2,8,-1,-2,-2,-3,0
0,2,-2,-12,1,1,0,1
-4,-10,-18,-5,-1,-3,-2,-6
-10,-2,2,14,3,-2,-2,-6
23,14,-1,-9,-2,2,7,7
1,-7,7,20,4,-2,2,-4
0,-2,-7,-20,0,-1,1,-3
1,-4,8,13,-1,-1,-2,-1
-12,-6,7,9,-8,-2,-2,-6
3,8,16,3,11,5,0,0
-1,-17,-22,-2,12,1,-2,-2
-2,-7,-5,-13,0,-1,-2,1
-2,-2,-4,21,2,-1,-2,0
3,15,18,1,-9,-3,0,5
-6,4,-11,-6,7,1,0,-3
-7,-4,8,3,-17,-6,0,-5
-3,3,9,-26,-19,-2,1,-4
-2,-12,-24,11,0,-1,-1,-3
0,12,17,-5,3,0,1,-2
6,1,0,14,2,0,-2,5
-3,-7,-16,-11,5,0,-4,-1
-3,-3,-14,-8,-2,0,-1,-5
6,-4,-5,-24,-10,0,1,9
-9,-2,9,4,5,-3,-5,-5
-4,-2,-4,14,2,1,1,-3
6,-7,-15,-6,-5,-7,-6,-4
-3,-1,-5,1,-5,-5,-4,-2
-9,5,8,20,5,-1,-4,-2
-10,-10,-15,-23,2,-3,-3,-2
6,16,21,-37,-19,-3,1,0
13,-10,5,31,19,2,7,2
12,5,-13,-13,6,5,6,2
-12,-8,-4,37,7,-5,-4,-8
-11,17,6,-27,-8,0,-1,-2
3,-7,2,3,-12,-6,-4,1
-18,-17,-3,2,-4,2,0,-2
4,1,-3,-7,-4,-3,-2,3
12,9,7,5,9,9,1,5
-12,-29,-22,-29,-13,0,-3,-1
33,33,-5,9,9,1,6,17
-9,-20,17,18,8,2,-3,-7
-39,-6,11,5,-3,-13,-20,-20
14,5,-32,-10,1,0,5,6
20,13,40,-5,3,-1,6,9
0,7,-8,-6,-2,-6,-1,-3
-28,-14,-11,9,6,0,2,-9
-56,0,14,12,6,2,-7,-26
66,35,-34,-40,-8,8,12,17
23,-20,-3,5,-13,-7,-1,14
-1,11,26,31,10,1,-2,-3
-21,-53,-10,-21,-16,-15,-11,-15
8,33,15,6,33,11,3,2
18,-2,-9,11,-3,5,-1,6
-30,-23,-6,0,1,7,-4,-11
-51,-2,5,-13,2,-6,-6,-9
50,-30,18,-26,-76,-24,-1,19
12,34,41,55,95,36,19,10
8,-1,-26,14,4,-4,-8,10
4,51,-14,10,-5,3,16,12
-57,-37,-19,-6,0,-2,-3,-7
0,-16,-15,-41,-35,-15,-11,-7
3,-14,2,-3,-5,-3,-19,-17
-28,-39,25,-1,-8,4,-11,-26
35,8,-21,-18,-23,-15,18,35
1,7,-32,15,13,-6,11,18
8,6,29,-5,29,12,27,-2
8,15,-3,-5,-30,-10,-20,-9
-35,-18,-38,-21,40,1,-18,-30
13,1,3,65,-5,7,4,5
19,64,68,-27,-49,1,17,17
47,-18,-10,9,39,6,0,4
-20,18,36,22,16,17,28,13
-40,-25,-23,-44,-25,-22,-34,-28
36,3,-32,-5,1,0,23,18
-9,45,10,0,-15,0,-22,-12
-27,-62,2,12,-7,-18,-54,-25
2,17,-4,-35,-20,2,19,3
-6,-65,-44,2,-4,1,8,-2
12,19,20,3,4,0,10,8
-47,-20,-34,11,9,4,-5,-22
24,15,24,-26,-19,2,17,6
-19,37,59,24,21,-2,-48,-13
37,-75,-89,-34,-4,-12,29,29
-22,-7,14,4,-39,-30,-63,-37
0,-7,-8,28,53,31,18,8
-2,11,31,-10,-3,2,30,-6
-4,35,-41,-18,-56,-19,-40,-4
-13,-64,-15,13,45,7,10,-21
11,33,-35,11,-22,-13,-4,11
-13,-22,32,17,13,-2,-4,4
-53,-8,-24,-5,9,11,-1,-15
5,-5,-38,-13,-31,-6,-3,-17
4,-27,45,-9,-11,3,0,8
23,7,10,-7,-8,-6,2,18
-19,-3,82,3,1,-1,-8,-14
3,32,-17,2,3,8,16,14
-60,-65,-37,-18,3,-12,-49,-41
14,33,-29,-20,-3,0,14,8
41,-34,-30,17,-6,9,17,17
-8,67,67,33,40,5,4,-5
-12,-6,-51,-44,-41,-18,-10,-12
8,-58,-86,-48,-77,-24,-20,-10
18,-34,36,60,67,25,1,11
35,72,29,8,3,19,31,15
-43,-62,-70,-3,3,0,-9,-21
31,-61,-25,8,-17,-17,-21,7
23,43,-53,-39,-9,-11,2,15
17,7,0,4,-5,2,1,6
-17,-17,-16,-37,-19,-8,-2,-17
-16,-14,-8,15,20,7,3,-3
21,87,103,59,25,7,24,13
-13,-120,-108,-42,-3,2,-3,12
33,127,99,24,-7,9,4,9
-32,-85,-40,16,25,-3,-9,-12
23,48,15,2,-16,-3,11,6
-24,-40,-85,-11,-35,-6,-4,-6
1,-25,19,-11,-12,-5,10,1
8,63,-12,44,51,9,7,4
-18,-20,-9,-58,-42,-17,-13,-18
-13,42,44,52,47,12,5,-3
-1,-11,12,4,-27,-8,-8,9
8,-3,-8,-4,3,16,13,11
-6,3,-7,-4,-1,-6,-20,-16
-55,-60,-12,-23,-19,-5,0,-18
6,87,38,41,6,-16,-28,5
49,14,-35,-20,-3,8,13,14
-1,-40,-67,-30,-11,-7,1,4
-5,-6,69,21,18,7,4,13
10,6,-21,37,30,11,19,1
8,-3,63,-33,-22,3,3,1
-20,-70,-94,-44,-27,-25,-14,-2
23,91,95,51,62,38,14,1
-17,-28,-11,-44,-61,-16,0,3
10,62,58,53,58,21,-1,12
8,-56,-13,43,39,11,14,5
30,69,49,-29,-26,-7,-8,-10
-30,-5,-10,-3,0,-15,-7,-16
5,-28,-46,-18,-2,1,-7,2
-13,63,57,46,25,13,8,-6
28,-7,-38,-33,-14,-7,9,24
-60,-84,-60,-28,-3,1,-22,-36
30,103,-33,3,-14,13,5,-2
-53,-40,22,-16,-15,-9,-5,-23
68,31,24,16,-23,-13,38,37
2,-79,-58,27,62,24,21,26
-16,50,-94,-21,-37,-28,-2,-7
65,9,-28,30,4,-1,-32,25
8,-3,-13,-34,-9,6,-3,-21
0,20,1,-90,-58,-35,-13,9
52,-58,19,96,22,30,18,1
-63,-47,56,-44,-50,7,15,-32
-29,-8,-17,55,23,-15,-17,-3
65,12,-79,-44,43,32,53,4
-88,-65,-3,16,7,-29,-75,-35
89,127,-32,12,12,9,40,56
-84,-96,6,-42,-32,-29,-27,-52
33,-64,95,10,-10,-10,13,10
-8,99,36,-14,-14,5,-23,-2
-44,-65,28,7,-23,-11,11,-31
3,-51,-128,-5,23,-9,-54,17
26,127,127,77,35,15,0,24
-26,-85,-2,-78,-49,-23,8,-32
27,77,13,-50,-5,-9,-38,-11
-7,35,87,63,-7,17,33,31
-37,-48,-61,24,87,35,-5,-37
-35,-102,27,-16,-52,-7,50,37
-1,71,-9,59,103,35,-24,-49
5,-74,-92,-61,-13,-6,-2,29
-25,60,-2,33,-22,4,11,11
31,31,-19,-54,-11,1,30,4
-49,-88,-41,-4,-11,-7,-24,-4
53,100,92,8,-37,-2,16,-16
-18,-95,-36,-5,5,-16,-25,3
16,17,10,-21,-12,-5,32,43
-37,46,91,5,-11,0,11,-28
-13,-6,-119,-17,21,7,-10,-43
89,106,118,18,-22,-2,36,71
-29,-58,-85,-47,4,-12,-24,-23
-1,-5,23,53,-43,-23,-15,1
-89,54,67,-66,-65,-14,-17,-37
103,123,15,-52,-37,4,14,-8
-26,-76,43,98,105,38,-3,-18
28,-57,-96,-13,-33,-3,-8,22
-6,-43,-30,-2,-18,-5,45,-9
-57,-104,-72,-46,-49,-20,-41,-18
27,127,101,62,39,5,-43,3
-3,-95,-128,-80,-23,9,55,16
32,106,127,46,31,15,-31,-28
-46,-128,-8,17,12,0,11,5
-30,-59,-65,-55,-38,-19,0,-7
52,83,127,31,16,7,29,11
-9,-89,-91,-37,-21,-9,-26,-4
-25,-27,-46,22,-3,-15,-10,18
-47,34,-7,-59,-57,-31,0,-22
16,27,60,78,66,42,-12,0
25,105,46,-28,-22,-4,10,18
-9,38,78,15,-10,-10,-25,-39
-38,-60,-96,-40,-39,-13,-25,-18
3,-47,-74,-59,-3,-2,39,-10
-31,-101,-49,15,13,2,4,45
22,105,115,3,-3,-5,5,-15
60,31,-23,67,-2,4,-21,1
-2,41,-3,-91,-25,-8,-9,29
-97,-128,-113,10,-17,-7,-45,-95
16,10,-55,-25,-44,-30,15,67
51,79,76,26,87,33,-5,0
2,11,-31,54,14,0,28,42
28,41,60,41,20,-7,15,14
-37,-31,49,-84,-24,21,-10,-40
20,-47,-56,5,-8,-8,-36,9
-1,5,94,63,41,15,8,8
30,56,40,-33,-12,13,43,12
28,47,1,11,12,20,20,28
-14,33,66,8,-23,-2,-3,-15
-18,-107,-89,-39,-22,-21,-29,-49
71,73,83,19,15,17,37,74
-87,-90,-22,-31,-55,-14,-27,-88
-12,86,8,-5,-9,-26,8,55
3,-96,-101,-6,-16,-21,-69,-33
76,104,81,14,59,16,19,60
8,-24,-54,48,29,-4,-28,-20
-61,39,76,-24,-40,-1,17,-65
-55,-76,-73,-95,-50,-32,-18,-12
53,15,-34,77,26,-1,-1,9
28,47,63,46,35,0,-37,-36
12,31,86,47,26,27,71,84
29,126,44,-32,12,3,-13,10
-97,-128,-80,-51,-38,-11,-9,-57
-2,-73,-128,-38,-64,-50,-36,-33
12,-78,-31,69,96,23,-11,25
-31,27,-6,9,-7,-1,9,-6
28,-19,44,-61,-38,-27,-78,-15
-55,16,-8,-15,-1,6,24,10
-19,-55,-40,6,-4,2,1,-47
10,10,104,70,-34,-7,-16,29
-33,-75,-106,6,19,3,-44,-64
63,13,-37,-27,18,9,69,81
17,28,11,-53,-15,8,-5,-10
-54,-63,-81,-79,-51,-47,-43,-33
-30,36,90,89,45,17,20,-47
10,27,-83,10,-1,14,23,92
14,-55,2,3,-20,-11,-30,18
65,76,110,90,53,29,75,32
-40,71,21,-75,-44,-28,-53,-52
-23,-113,-25,4,-10,-4,-20,21
36,-13,2,-29,-16,-10,57,18
-62,-46,32,-36,-5,-8,-50,-36
-14,-126,-64,14,27,-4,-14,21
-10,-19,-20,54,7,14,46,-28
-21,-93,-100,-46,47,7,-28,-50
53,4,20,63,-4,-3,2,9
-5,-65,-99,-21,-4,2,28,34
-24,-30,-38,-82,-9,-9,-8,-49
0,20,78,69,-34,12,-23,-19
-35,-63,-117,-43,-4,5,36,38
59,98,74,25,-14,-2,10,38
-27,-6,11,6,34,-4,21,-70
68,0,-82,10,15,22,40,72
12,61,94,48,29,5,-5,36
4,-30,7,11,-24,-7,23,12
14,90,55,2,16,4,-5,-11
-79,-44,12,-71,-41,-14,-22,-113
70,64,51,16,10,13,28,87
-14,37,-6,-27,-13,2,-2,-1
57,111,127,77,30,4,-44,-2
-41,-114,35,21,-3,-17,-27,-43
55,114,-11,-121,-25,-2,22,-34
18,-108,-71,87,-59,3,14,27
-1,-9,-63,-22,20,3,-12,7
-16,14,-74,-46,-52,-30,-7,24
-66,-59,-107,-42,-29,-6,-80,-89
45,-67,-10,25,73,25,57,63
7,15,-18,32,4,7,2,1
3,87,10,-33,-24,-9,16,0
-34,7,-41,26,34,13,-43,-66
36,13,29,-28,-11,-13,-1,55
-17,-74,-54,-17,-13,7,-11,5
-1,-15,81,24,10,-2,25,13
-21,-24,14,12,-11,9,29,1
-21,63,68,-62,-24,-19,-24,-48
-1,55,71,28,7,12,-17,-41
97,-63,31,-6,-15,-6,41,52
62,30,28,26,21,23,-10,38
-27,62,54,60,48,5,-8,3
-14,37,-1,-62,-61,-37,27,-19
5,3,-22,89,99,30,-46,-29
-21,-120,-33,15,-29,-5,29,52
-20,30,-1,-25,-19,-9,-13,-67
74,-40,-62,-17,-3,22,51,62
-68,5,29,-47,-41,-32,-55,-71
40,26,81,28,26,20,-3,39
-32,45,-2,7,2,-13,-18,6
-49,41,-58,-45,-26,-24,-25,-54
-1,-55,45,46,13,14,19,-3
33,-50,-56,-18,-5,1,6,23
-53,-33,-67,-18,22,14,52,-35
37,-42,45,47,-3,4,-82,25
4,66,-55,6,13,5,13,38
-23,127,127,45,18,-1,29,10
-38,-82,-128,-75,-39,-28,-38,-40
5,23,81,95,75,19,9,2
-8,-1,-24,-40,-21,12,9,9
-31,-33,-7,-5,-4,-7,3,-9
50,-53,116,47,-15,-8,1,20
-43,-34,-26,-13,-13,-8,-24,-44
-21,-12,-14,-60,-26,10,71,28
-36,55,-69,31,26,2,2,-17
30,-7,-16,-31,-24,-1,-1,-40
6,-21,62,56,19,-2,-10,80
16,72,-73,11,4,-20,20,20
-23,15,-52,-26,-13,7,22,-50
-6,-75,-102,-43,-16,-17,-34,38
25,-25,-1,-9,12,-3,-19,-25
-11,47,4,-23,-53,-5,16,-1
17,-26,34,67,73,24,17,16
-6,48,73,41,9,19,10,-3
-34,0,-16,-32,-21,-5,11,-19
6,-78,-63,-45,-23,-22,-33,-1
4,59,98,-2,-35,-9,-10,-24
-10,-6,-59,-39,10,9,0,12
8,-5,19,15,-3,0,11,10
-8,41,50,47,3,-13,-17,-14
2,-79,-120,-42,-32,-23,-2,-17
-8,47,53,10,22,36,-13,-8
12,-22,-19,-23,-6,1,39,45
-16,18,19,-7,4,4,-29,-25
6,-13,30,6,5,-8,2,1
5,4,-15,5,-3,-14,12,10
-15,7,3,-7,-10,2,-4,-19
