2,-5,-11,-1,-3,-5,3,-1
1,-4,3,8,-1,0,0,0
2,-1,-4,-7,13,-3,-1,1
4,1,26,25,-19,-2,-2,-2
1,1,-12,-5,0,2,-2,-1
-5,0,-27,-36,-7,-5,-2,-1
-6,3,-6,-41,1,-8,-2,-2
-3,4,18,76,18,12,6,4
1,2,1,-18,8,3,-1,0
2,-3,30,38,-3,-2,-2,1
5,-1,-6,-13,-3,1,-3,-4
-2,1,-5,-15,-11,-6,-5,-7
-4,0,-6,-6,-3,-3,-2,-4
-5,-3,4,8,-2,-4,-2,0
0,-4,0,3,0,4,-1,1
1,-8,-8,-27,-9,-4,1,-1
2,1,4,7,1,1,3,3
-1,2,4,-7,-10,-6,-2,0
0,4,8,18,5,3,1,-1
0,-7,-17,-25,-28,-7,-5,-3
1,-5,5,-13,-3,-5,0,-5
-1,1,15,27,26,9,-1,0
0,0,-20,16,3,0,-3,-2
1,1,-6,-15,6,-3,-5,0
-2,-4,2,-9,1,-4,-3,-1
-2,9,29,64,-15,-2,1,-3
-6,-1,-22,-63,-16,-1,0,-4
-3,1,0,-8,5,-9,-1,-3
-3,-2,12,5,-6,3,-1,1
0,-4,-13,-9,5,-5,-2,1
-2,3,14,19,4,-2,1,-1
-3,2,-5,3,5,1,1,-2
-4,-2,-5,-8,-5,-2,0,-2
-2,-3,-9,-20,-8,-1,1,-3
2,-2,10,26,-5,2,-3,-3
4,-3,-3,-21,-6,-3,-3,1
4,-1,1,12,2,-1,-1,1
2,-9,-16,-25,3,-1,-2,1
-2,-3,8,13,4,0,-2,2
-1,-1,-1,-10,-29,-3,-1,-1
-5,7,17,29,17,6,2,4
-5,-3,-32,-5,27,2,-2,0
-1,-6,1,-1,-11,-4,-5,-4
-2,0,3,-2,1,-4,-1,-5
-2,0,-11,-3,-12,-7,-2,-7
0,2,-1,-13,-11,-2,2,-1
3,2,3,8,10,0,0,4
4,0,-5,3,-2,1,-1,3
2,-3,-13,-10,3,1,-1,-5
-2,-4,-1,-5,1,2,-1,0
-4,-3,-2,3,-8,-3,2,0
1,1,5,0,6,4,4,2
1,0,0,-11,0,-4,-2,1
-1,1,2,-5,-7,-8,-9,-4
-2,-2,-7,-1,-1,4,-1,1
-5,-1,-4,-3,14,-2,-2,0
-4,-3,-5,-9,-7,-4,0,-3
0,1,3,-3,-6,1,1,-5
-3,-4,-6,18,17,0,0,-4
0,1,-1,-1,-14,-3,-1,0
-2,1,-2,-1,-8,1,-2,1
-4,4,-2,-12,-4,-2,0,1
-1,-2,0,-3,-4,-1,0,0
-3,-2,1,-4,-10,-4,-4,-1
1,-4,-6,4,28,2,-1,-1
3,0,0,0,-15,0,-3,0
4,3,3,-2,3,-4,-4,-3
1,-2,-5,-4,5,0,-5,-1
-2,0,9,1,-6,0,0,-1
-2,-2,-6,0,9,3,0,-1
-4,0,5,10,-1,4,0,-4
-3,-3,-20,-17,-6,-3,-1,-1
-2,-3,-1,3,-8,-6,1,0
-6,-6,-3,15,-2,-1,0,5
0,3,4,-28,-4,-3,1,5
3,1,23,15,7,-1,-3,0
2,-2,-7,-2,0,2,-2,-2
0,0,-9,0,0,-5,1,-4
-3,-1,-5,3,-8,-2,2,-1
-6,-2,-8,-28,3,4,3,-5
4,0,5,13,-2,-2,0,-2
4,0,12,-3,-3,-3,-5,-4
2,-2,3,10,-2,-2,-1,-3
0,4,-4,4,2,1,-2,-3
-7,-2,-6,6,1,-2,-3,-5
-9,-2,-3,-4,-3,-2,-2,-4
-5,3,10,-13,-10,1,1,6
5,-1,-1,0,-2,-7,1,6
-1,-1,0,-2,-5,6,5,3
2,-2,-7,-4,4,2,2,0
0,-6,-3,6,6,1,-6,-2
0,-4,-9,-6,2,2,-4,-4
8,9,30,9,-7,0,0,3
-3,-3,-6,10,-8,-7,-4,-8
2,5,18,-1,8,7,3,-2
-9,-4,-20,-14,-4,-7,-3,0
-8,-7,-6,32,15,0,-5,1
1,-1,0,-48,-12,3,-3,4
5,-1,-7,8,-11,-9,0,-2
2,3,3,2,16,2,2,0
-5,1,-8,-24,1,-3,-2,-4
-3,1,1,21,-4,-10,-5,-4
-2,1,-8,-5,-2,4,0,0
2,0,7,-6,-12,-2,-2,2
2,0,1,1,-7,-1,0,1
-2,-5,8,4,2,1,2,1
-4,-4,-3,13,1,-6,-1,-2
-20,-6,5,-22,-6,-1,-2,-10
-16,-8,-8,-17,-4,-2,-6,-14
32,17,-2,-18,1,10,12,13
9,-7,-13,-4,16,-2,3,9
5,0,18,50,14,5,2,2
-8,-6,2,-8,-1,-4,-4,-8
-30,-11,-7,25,3,0,-8,-14
10,9,6,-24,-14,-4,-5,-3
18,4,-8,2,-5,-8,-1,9
-3,-11,-30,47,20,0,4,2
16,8,8,-76,-24,4,3,16
-42,-26,0,7,-3,-8,-15,-16
-8,7,-12,-42,-14,-5,-7,-14
37,24,23,44,13,30,32,34
-24,-12,-6,-21,1,-11,-11,-15
-28,12,0,13,6,5,-3,-21
94,25,7,11,10,16,35,64
-8,-23,-12,-46,-21,-23,-15,-10
13,7,1,13,9,0,3,7
-31,-11,8,-30,-15,-4,-2,-9
-61,-10,9,50,8,-2,-9,-32
-34,-13,-14,-25,-10,-4,-10,-8
44,21,-18,7,8,-2,-4,6
14,-12,3,-20,-4,-13,-5,0
-22,-7,-15,-26,-16,-3,-6,-7
-32,-24,3,-6,-3,-4,-3,-14
-27,19,10,4,2,-14,-13,-18
41,6,4,21,10,14,13,20
24,-5,-3,0,3,2,2,6
-3,0,-11,-8,4,-2,-8,2
-25,-17,-7,-22,-9,3,-1,-17
20,25,0,21,-7,-12,-11,-1
-13,-14,-7,-23,-9,-3,-6,0
-35,-11,-6,1,3,3,-9,-14
2,22,19,11,20,21,28,17
50,-12,-11,-25,-18,-30,-23,4
-14,-4,1,39,19,32,16,-4
15,-3,-18,-27,-6,4,4,7
-37,13,39,-12,-4,10,-4,-9
5,9,0,13,2,3,5,9
19,-4,-15,27,12,-21,-13,2
15,15,33,-96,-36,-3,7,-4
-16,8,-1,41,-11,-11,2,-1
-42,-23,-22,15,10,10,10,-22
44,6,5,-34,-18,-15,-13,-1
17,7,27,96,26,15,11,9
-13,-7,-23,-41,-20,-26,-25,-12
-3,2,3,-6,4,26,10,8
13,-36,-15,96,37,15,13,4
-14,7,5,-89,-49,-16,-6,-5
-14,-29,-4,50,2,0,-4,1
32,45,-8,31,-3,-19,-15,10
-53,-10,12,-1,17,21,24,-3
56,42,5,52,14,-2,1,-15
-18,-18,-21,-30,-37,-59,-28,-26
10,-15,-19,-36,9,29,-60,9
-69,13,9,62,35,-11,-3,-35
83,-61,-3,-46,-26,4,22,55
31,5,-13,-25,10,10,34,59
-8,-12,7,49,15,12,82,35
-14,7,-21,-6,-18,-39,-73,-37
-30,88,78,29,20,23,-26,-40
20,-74,-44,28,34,-14,4,7
0,33,19,-80,-50,-18,-13,-44
-51,-49,-24,-65,3,9,20,10
27,64,-9,94,29,-3,27,28
5,-3,14,-59,-79,-20,-37,-21
20,-41,-9,-12,13,12,26,32
-4,18,3,-10,32,2,-6,-37
-57,-47,-20,-96,-86,-64,-57,-61
-33,21,-24,-3,24,22,-8,-4
21,20,11,68,39,43,12,46
18,20,-24,-62,-39,5,-1,-10
11,-16,6,1,30,-13,12,37
16,-2,25,127,55,78,68,44
-49,-3,11,-66,-53,-37,-18,-48
27,8,-5,-10,-18,-5,5,18
-61,-16,-23,23,30,-16,2,-33
49,36,24,-87,-32,19,2,-1
-18,-59,-22,126,27,6,-10,3
26,32,35,-53,-19,9,10,14
-2,-49,-43,32,2,-11,-4,-8
-13,13,13,-25,-26,-19,-13,-67
42,30,37,-43,0,24,23,60
-8,-17,9,11,-12,16,11,7
-10,39,10,-24,-12,-17,-1,10
-17,-91,-87,25,30,-14,-27,-10
-25,12,-13,48,5,-16,5,-39
10,2,28,-22,-22,-6,-15,3
10,3,10,11,15,11,-7,-4
4,6,31,78,18,-20,-1,10
-25,-13,-56,-67,-22,-33,-31,-25
21,24,22,-47,-9,-33,-28,-2
15,20,17,7,10,56,53,8
-29,-30,-30,26,-23,-25,-48,-22
-9,14,-2,24,34,-5,-3,-18
25,-15,-1,12,-4,-8,12,29
-11,-28,-34,41,25,4,6,-4
-29,23,-1,-38,-27,1,-3,-51
26,14,42,-26,14,-1,2,30
10,1,-19,39,8,-38,-7,35
3,-12,-8,12,-27,-14,-34,-18
-9,-17,-1,10,43,54,56,47
-13,17,36,-32,-35,-23,-22,-54
-44,-68,-20,17,24,8,-7,-22
4,9,11,-127,-86,1,-17,12
22,37,15,90,21,-15,-7,-4
-10,-29,-33,-110,2,-1,-6,-17
-17,3,38,44,-5,13,25,21
9,-21,-20,-25,3,-10,-7,-31
-23,-26,-11,-26,6,-8,-32,-8
18,19,11,5,-34,4,31,21
-13,21,-11,12,-11,-14,-48,-33
6,-27,-16,2,39,20,23,23
62,32,25,0,26,-8,17,15
-16,-41,-9,94,8,-31,-21,10
5,17,-11,-47,-13,67,58,21
-8,68,44,87,22,11,23,-11
72,-44,-6,-88,-32,-14,-37,3
-30,2,11,51,5,-24,-15,-38
12,-14,-23,-125,-26,-22,-28,26
5,3,28,74,26,29,16,26
-10,14,12,-27,4,16,27,-1
-2,9,-8,-26,25,2,-1,-6
12,-16,-24,13,-26,-12,-9,-16
-26,-11,-3,-29,5,-6,23,4
43,14,14,0,-22,-24,-36,23
-2,1,-13,-29,0,31,17,4
-40,12,-6,99,34,-40,-30,-54
30,-30,-3,1,12,28,27,56
-29,22,-15,-40,-14,15,11,-13
-16,26,7,-42,0,21,14,-12
41,-28,41,45,2,-12,4,6
-10,-8,-29,15,10,-9,16,-5
-32,3,9,101,39,2,-29,15
50,-5,-7,-73,-67,-8,49,4
-81,-16,-35,4,7,9,-46,-27
29,8,-15,-46,-11,-14,12,15
7,12,8,-10,16,-16,-32,-12
-27,-30,13,1,-12,-16,-16,25
32,56,52,104,51,19,25,-60
-19,-21,-27,-128,-55,-26,-58,12
-27,2,4,89,36,6,35,-13
-2,26,-10,-21,-20,-33,-8,20
10,-29,-19,-74,-34,14,-33,8
-23,-12,-37,18,18,-14,-35,-39
-4,15,-8,-37,-9,13,-1,21
-10,-36,-51,48,54,7,10,-24
41,18,10,-94,-45,-20,-1,36
-13,0,5,127,22,28,24,-7
-29,-29,7,-128,-72,10,36,9
-23,64,18,15,8,9,-71,-49
17,-57,-48,-82,12,2,54,54
22,54,50,40,12,-12,-23,4
-13,-16,-19,-46,-50,-12,21,-35
-14,-13,50,-33,-5,-4,-4,-6
-44,18,47,88,25,-3,4,-12
31,-19,-1,37,28,23,5,33
23,2,9,-14,38,5,12,-4
3,-1,-36,30,43,-8,-6,-8
10,36,0,-41,-71,-20,-18,1
-24,-3,-9,-53,-2,-8,-36,-30
0,-1,-14,63,57,28,29,1
18,10,47,-76,-80,7,7,33
-6,-12,-6,111,11,-6,28,-59
-1,8,16,1,-7,-13,-40,49
1,11,4,-91,-60,-1,-6,27
-53,-23,-21,32,49,16,17,-21
16,21,-12,95,7,-8,12,0
7,-37,-28,-128,-61,-25,-14,-30
-11,0,-12,40,31,16,17,8
8,-19,10,127,13,3,7,16
-9,15,-45,-117,-21,13,19,-7
-23,-29,-79,115,58,-21,-37,-53
29,10,26,17,-18,-14,-11,39
-19,-30,-28,2,8,9,-6,-5
21,11,25,-20,30,23,25,22
-10,36,34,-20,-48,-9,40,-44
-9,-38,-23,7,20,-19,-69,1
39,-13,-31,-6,-5,14,-11,49
-50,47,5,73,39,15,-7,-11
10,-6,14,-74,-15,-16,5,-19
48,3,78,76,30,7,22,8
1,2,-31,40,-38,-20,-25,-12
9,-44,-4,4,-1,18,36,44
0,-4,-22,-18,54,11,-29,-24
-22,11,51,-68,-87,-15,-3,4
23,30,-4,-96,14,7,14,-6
3,-3,-2,34,13,-20,-6,19
-42,23,5,-61,-30,1,-2,-66
34,-14,-9,91,42,21,25,71
24,35,-14,18,6,11,10,6
-49,-60,-23,-36,-10,-33,-40,-30
-10,-24,5,108,12,18,36,8
-26,-8,-40,-110,-15,24,-4,-14
-9,30,18,74,14,-9,4,-10
73,15,57,29,-30,-22,-31,-10
-31,-14,-7,-91,-3,-13,38,30
-20,-14,9,104,-9,20,-34,-30
-4,-3,-6,-33,-4,4,-5,-17
-7,20,48,-13,11,7,70,7
34,-5,11,43,18,-12,-50,65
-8,26,-46,-66,-38,-22,7,-30
-10,-33,42,21,-6,-11,-20,1
-7,-5,-19,39,21,20,9,5
-1,3,-18,-110,-35,0,-16,-14
6,27,-2,25,22,-11,7,-2
-4,-28,-11,53,33,2,-12,-9
4,5,23,-74,-24,-2,-8,-1
2,6,8,19,8,13,24,17
-30,-52,-17,-27,12,-15,-33,-30
-7,-14,-75,-57,3,8,34,-6
8,31,64,7,-2,19,4,6
26,-1,-36,-37,-28,-7,-13,9
-8,36,59,-2,9,-20,12,-14
-11,-18,2,-25,-1,-2,4,-14
-13,7,-4,-8,2,-5,-15,7
-6,-36,-32,100,13,11,10,-4
0,19,12,36,3,0,33,-16
9,-16,-2,-1,-31,-1,-10,34
7,-3,-55,-17,-7,-16,-59,-12
2,9,19,-18,-3,-6,13,9
13,0,-30,-20,2,20,5,-1
-10,10,36,-2,-11,0,19,-5
-8,-27,-29,-30,-2,1,-13,0
1,4,13,92,36,9,-2,-6
-5,7,-8,-16,1,-13,13,-2
3,4,22,0,28,2,-24,1
-6,-1,-10,-44,-12,0,-3,-4
-6,3,-34,-13,-14,-7,-8,3
-1,-1,28,35,-6,-8,-6,-10
3,-6,32,-28,-22,-8,18,-3
1,-11,-56,-11,-4,-1,-26,13
0,4,28,-25,-7,15,22,-9
9,-3,11,-8,4,2,-1,4
0,-4,-34,7,-8,-6,-14,-11
-7,2,-5,-35,3,5,14,-1
7,9,22,36,3,-8,-13,8
-6,-24,-28,-38,5,-3,-4,-3
-6,-6,-19,18,18,5,5,-3
-5,2,62,23,9,2,6,-7
0,7,1,-7,-9,-3,-3,5
-1,22,20,-61,-4,-3,-8,-8
-11,-15,-47,-28,-32,-8,-4,1
3,8,23,70,25,4,2,0
10,15,87,47,1,5,0,2
-11,-28,-118,29,-10,-11,-11,-8
12,10,33,14,8,6,0,1
2,-11,25,8,-3,-3,-3,4
-4,-13,-40,-77,-20,-6,-1,5
-5,7,-17,105,9,-4,-4,-5
1,14,55,-19,4,7,2,2
-4,12,22,13,-4,-13,-3,-8
-8,-14,-68,-73,-1,-2,-1,1
4,8,104,74,-4,0,4,3
-1,-13,-51,-57,-8,-18,-18,-15
4,-14,-28,-102,-14,25,25,4
4,31,56,48,16,-1,-2,-1
-21,-34,-88,-67,-22,-5,-5,-12
7,11,20,25,9,8,9,7
-2,-1,-48,-31,-10,-10,-6,1
-10,-23,-79,-21,-17,-9,-6,3
-4,2,18,-28,-9,-23,-5,-4
7,19,29,-19,11,3,-27,13
-3,-24,-71,20,0,-1,9,13
7,6,-14,-23,-5,-5,-7,-25
2,-4,-23,-63,19,8,0,-1
-2,7,39,5,-9,-12,1,-7
-4,-8,-59,10,-2,1,-7,-8
-1,5,35,45,1,3,4,5
7,9,41,15,-8,-1,-2,5
-2,3,54,33,-13,-6,1,2
3,11,27,-9,33,16,2,0
-6,-8,18,-20,-18,-7,0,3
3,-7,-40,-25,12,6,-1,0
0,-5,-1,8,-6,1,4,0
-4,-10,20,30,0,-2,0,-8
-5,9,-3,-7,8,-2,-5,0
0,8,42,38,6,0,2,6
-5,-6,-57,-42,-7,-5,4,0
-3,-1,18,15,-7,-10,-9,-4
2,-4,5,-28,8,5,-3,-1
-3,-11,-35,-23,-11,1,-3,0
5,3,0,22,7,0,3,-1
-1,-3,37,42,-10,-2,-3,-8
-1,0,-25,-52,-5,4,-1,2
3,8,49,42,12,4,-2,-5
2,-8,-6,-9,-1,4,6,-4
3,-1,-34,-65,-9,-4,0,-1
2,1,19,-4,-1,-4,-5,0
-1,1,-11,-4,1,4,5,-2
-3,-4,-42,8,-6,3,0,-1
-10,6,25,17,-12,-6,-5,-4
-4,-3,27,51,5,-1,2,2
-4,2,1,-44,-19,-8,-5,1
-1,0,3,8,36,3,-3,1
5,-3,-12,-3,-5,4,7,3
