-3,0,3,10,-2,-3,-3,-3
-1,0,-6,79,8,0,-1,-2
1,3,23,-78,-19,1,0,-1
1,2,15,33,7,-5,-3,-1
-2,-5,-19,-2,4,-2,-2,-1
0,-2,-8,-17,0,0,0,1
-3,0,-7,11,0,-5,-3,-2
-1,0,-1,7,-3,0,1,-3
-1,-2,7,-2,-7,-3,-2,-1
-1,0,15,14,-3,-2,-2,-1
-3,-6,-16,-24,-2,-3,-2,-1
-1,-2,0,2,0,0,1,0
-1,0,7,17,2,1,-1,2
0,-1,-3,-13,-5,0,0,-2
-2,-1,-1,22,8,5,1,-2
0,1,-12,-5,0,2,-2,0
1,4,30,45,11,-4,0,1
-2,-7,-39,-89,-16,-9,-2,-2
-3,-4,-7,-30,0,-6,-2,-2
1,0,-10,10,2,12,4,1
-1,3,2,-18,-4,-2,-2,-1
0,1,-7,-3,1,3,-2,0
-4,-6,17,49,-1,-6,-6,-4
-2,-3,0,-17,-7,-3,-2,-2
0,0,-20,-18,2,-2,-1,-2
1,2,18,36,4,-3,0,-1
1,0,-1,-1,1,-1,3,0
-2,-1,-5,-8,-3,-3,0,1
-1,-3,-2,0,-5,0,-1,1
-4,-2,-5,-7,-2,-3,-2,-3
-4,-2,8,4,-1,2,-1,-1
0,-1,-24,1,3,0,-2,-4
1,3,0,0,-4,-1,1,0
-2,-3,-6,-49,0,1,0,0
2,6,21,46,4,2,-1,0
-3,-1,-6,5,4,-3,-4,-1
-3,-3,-1,-14,-5,-2,-3,-2
1,-1,1,18,-4,-1,0,-2
2,2,-6,-14,-3,-1,0,-1
1,-6,-10,-11,1,-2,-2,-1
0,-4,-16,-12,-2,1,0,-1
-3,0,21,13,3,0,-2,2
-4,-5,-41,-31,-2,-1,-2,0
0,3,18,17,-3,0,-3,-1
-2,0,4,35,4,0,-1,0
1,4,-10,-29,-11,0,-1,0
0,-1,1,9,-1,-2,1,-3
1,-2,16,-15,-8,-4,1,-2
0,-4,-14,-19,-2,0,0,-3
0,0,2,10,5,2,-2,-3
0,-2,6,28,2,-2,0,-1
-4,-2,-1,-20,-5,0,1,-1
-5,-5,-9,-13,-8,-7,-4,-4
-1,3,8,15,2,-1,0,0
-1,-5,-6,-20,-1,0,1,-1
2,1,14,25,2,-2,-3,-2
3,0,16,20,3,-3,-3,-2
1,-2,3,-31,-9,1,0,0
-2,2,-6,-8,3,2,-1,-3
-3,-1,-13,1,3,0,0,1
1,5,23,20,-2,-2,-2,0
1,-1,-31,-41,-12,-4,-1,-1
1,1,19,0,-4,-4,-2,0
-3,0,-17,-5,4,2,4,2
-3,0,25,66,11,3,0,1
-1,-4,-8,-62,0,0,-1,-2
0,-4,-28,-4,1,0,0,-1
0,-1,-6,-11,-7,-3,-4,-3
-1,-2,-20,-31,-3,1,-2,-1
-3,-1,7,16,2,1,-4,0
0,4,-2,67,10,4,0,1
0,0,11,-46,-13,-3,-4,0
-2,-6,-17,7,-2,-3,0,0
-4,-3,-3,13,3,-6,-3,-1
-2,0,0,-39,-6,9,2,0
0,5,8,38,3,-3,1,-1
1,-3,-8,-15,-1,2,3,17
-6,-4,27,26,1,1,-4,-31
0,-3,-31,-23,-7,-7,-6,-6
1,-1,-10,-9,-6,1,-1,2
-5,-6,-26,29,5,-1,-2,-6
-1,1,27,45,4,4,1,11
4,9,-8,-43,-3,2,2,1
-4,-9,9,9,-7,-13,-6,-13
-2,-5,-16,-59,0,12,-2,0
10,8,9,21,6,2,6,5
-3,5,35,25,2,-1,-4,-4
-3,-17,-64,-9,-5,-5,-2,-24
0,-2,13,-24,-11,-8,4,37
-3,-5,-54,34,13,18,5,-23
9,16,40,-32,-2,8,9,31
-14,-28,-10,6,-8,-5,-3,-7
-4,-11,-7,-12,-11,-9,-7,-14
-3,1,1,-57,-14,-14,-4,15
2,4,33,32,-4,-16,-9,-11
-14,8,-1,12,13,6,1,3
-4,0,16,18,7,-2,-3,-16
-1,2,8,-48,-3,-5,0,8
-1,-12,-28,-28,-5,10,5,3
14,22,89,57,7,4,2,9
1,0,-8,11,-4,-20,-12,-17
-1,10,13,57,2,8,0,-2
-4,-21,-68,-22,-4,0,12,8
-10,2,76,-70,-3,-16,-14,-1
-7,-5,-10,65,10,9,1,-15
8,7,10,5,21,0,0,-7
2,-4,7,-87,-42,-8,-5,23
-4,-1,-44,20,-15,-2,9,17
3,2,10,-50,-6,-27,-13,-42
1,5,57,63,18,11,-16,24
-2,1,-20,-5,1,8,13,-13
5,10,22,-60,-5,5,7,-2
10,6,50,29,-9,6,6,22
-9,-18,-111,-24,-23,-19,-18,-22
-1,-12,-12,58,16,-1,6,-3
4,4,21,60,12,5,-5,7
-5,-4,-22,-46,-9,6,1,-5
1,-3,27,9,12,-1,4,5
-3,-2,-46,-46,-9,-7,-13,-12
6,0,22,25,9,1,7,20
10,6,1,-15,15,10,-8,-18
-2,-6,13,23,-28,-7,5,4
-4,3,-2,-6,16,-2,-5,-4
-8,-6,-35,-40,-8,-25,-12,-50
14,2,-28,-18,-3,50,21,68
-1,-5,3,5,21,4,7,-12
8,12,76,97,4,-1,0,-12
1,3,-73,98,14,-4,0,-10
-30,-25,4,-63,-37,-18,-8,-11
9,-3,23,-36,0,0,2,2
3,20,-14,-29,2,3,-4,-2
-2,7,-5,88,20,11,5,4
-8,-8,-7,5,11,-13,-10,4
-2,19,-21,2,-17,5,3,5
-5,-16,-30,15,3,-7,-6,-7
4,-10,7,-97,-46,0,-1,5
-17,9,40,34,14,-17,-11,-51
22,-7,-48,-39,-2,17,26,71
-13,-16,65,44,-11,-6,-17,-6
12,5,-85,-102,13,11,3,8
-13,18,24,28,-6,3,9,-6
-46,-31,9,-89,-25,-22,-13,-52
37,4,-80,-26,2,8,8,37
0,-3,79,63,1,3,-4,6
5,-16,-59,25,18,-7,-5,5
-1,13,50,-23,1,-9,-9,-11
-28,-5,28,37,-18,-5,5,7
11,0,-16,-1,15,9,-11,-27
8,18,-19,-20,-2,2,4,0
5,-10,21,121,6,-9,-6,-53
-17,-18,4,-78,-8,-24,0,51
22,9,-27,77,15,43,31,15
-9,-3,59,74,17,5,1,14
13,11,-64,-76,-25,2,7,-1
-17,-16,11,-5,-12,-12,-12,-15
-18,-33,-62,20,9,-21,-17,-41
14,17,2,26,-5,3,11,6
-22,-7,43,-66,-10,-5,-4,-2
6,-16,-76,40,9,-7,-12,-16
-13,0,63,-20,4,-9,1,-4
-6,-7,42,76,-10,13,-4,16
49,7,-63,31,-10,-2,9,55
-8,26,127,40,-5,6,-4,-23
2,-8,-47,-99,-32,-9,0,36
-9,7,117,-34,2,-19,-7,-59
-9,-3,-40,110,40,2,-20,4
11,3,4,15,15,24,13,4
-6,16,-66,-48,1,-4,-2,-2
24,11,-1,-109,-11,-12,16,15
5,3,-23,25,-17,-2,-2,26
-6,-1,17,-96,30,13,12,-49
6,27,61,-24,16,15,0,21
1,2,24,44,-4,-1,-6,-22
20,2,4,25,16,1,7,26
1,-23,-13,56,0,-7,-3,9
-9,0,-55,-36,-2,-2,7,-23
-16,-4,-35,-19,-24,14,5,-25
-4,-3,37,12,4,-13,-18,52
-17,39,121,112,43,16,-6,-19
-7,-21,-29,-39,-14,-16,-15,-2
-15,-62,-128,-104,-6,4,-16,-27
-48,-31,16,-76,-58,-50,-18,-39
36,12,-118,-30,46,32,-6,19
17,22,0,127,10,0,2,19
-13,0,-33,-71,-32,-13,-5,8
-15,25,45,-14,25,13,19,-18
3,2,-12,-112,-48,-30,-16,-24
-19,-55,38,95,48,7,1,-10
17,56,29,-43,-16,2,2,25
1,-5,-3,44,12,4,8,-14
19,-8,-78,-44,-31,-3,0,3
3,62,127,54,-2,7,5,3
-33,-54,5,-23,-3,-20,-5,-77
17,4,-48,-69,-9,-11,-27,33
-17,-11,-18,-68,-29,0,22,12
30,25,-23,5,-32,-6,-14,13
19,-39,-93,-53,47,32,22,27
-19,-36,-14,36,-23,-8,-6,-70
-43,-11,12,-8,-30,-31,-45,-28
62,56,53,29,11,-3,6,35
2,-12,-37,50,9,15,19,48
8,-7,28,-71,37,22,16,-7
-35,-67,-33,127,15,-8,-2,-5
1,24,-74,-78,-12,9,19,-24
11,8,-39,69,7,-15,-20,22
-36,-66,-82,-73,-28,1,1,-32
8,-13,-74,100,62,6,9,-9
-23,-21,50,-19,-55,-7,-10,2
-6,26,-44,27,-5,-20,-2,-12
-21,-74,-20,-22,-29,16,9,-2
71,89,-3,28,27,19,4,85
-25,-58,-85,54,69,-16,-12,-13
17,60,126,-34,-32,20,7,24
-11,11,-9,13,1,-17,-2,-48
0,16,117,-28,7,-3,1,15
21,51,116,74,30,0,-16,-24
26,18,75,-20,-23,-13,-9,20
7,19,13,5,10,3,0,-29
-41,-33,-32,-28,-19,4,6,-12
-18,-3,-102,-38,14,2,6,17
12,-19,53,-62,8,11,1,13
6,29,13,46,-12,-3,-6,-13
-2,15,-31,-19,-9,-15,-5,-17
-31,-84,-19,48,-29,-14,-8,-22
-48,44,54,9,-11,-8,-20,-38
49,61,103,116,55,23,22,80
-11,-39,-57,-84,-14,9,-1,-30
-4,13,63,-77,-28,-7,1,8
5,27,-6,23,28,2,13,-22
2,-16,-38,-4,3,4,2,53
4,0,-12,72,-16,-6,0,-31
-45,-25,39,-39,-14,-1,-3,2
-22,-41,-94,29,-30,-29,-22,-41
18,101,127,70,16,8,13,-2
-19,-51,-85,-67,-8,-7,4,-17
22,-31,-98,-128,0,7,6,7
38,38,90,-40,-5,18,7,53
-43,-42,-7,48,-22,-27,-31,-23
6,3,63,-8,-10,-5,3,-8
9,25,93,-8,-8,-8,-4,-24
-81,9,50,-7,-25,-33,-19,29
59,41,24,56,-3,7,2,3
10,11,28,41,-8,5,8,12
-10,-34,-103,-62,-5,1,3,-9
20,-17,-72,7,6,10,5,-3
-36,-49,-54,-125,-26,0,-14,-8
1,41,-13,-102,-27,-12,-3,27
-13,-17,-101,86,14,-2,-6,9
8,10,23,-18,28,11,10,-1
18,-19,-128,-114,12,-6,-11,-57
12,-2,127,79,13,20,27,37
-1,63,119,-56,-10,27,-3,4
15,-41,-119,-29,22,5,14,19
-12,21,73,-92,-22,-12,-9,-20
3,-3,-18,-46,5,-26,-10,-38
20,3,36,33,9,9,20,91
10,-32,-80,-39,7,16,-7,-31
9,41,50,98,58,21,14,35
-9,12,-2,-23,-21,-19,-16,-37
-13,-12,-38,-71,-16,-6,-6,-54
35,39,107,110,68,5,12,93
-2,-41,-79,-76,-59,2,7,-5
19,28,70,96,59,26,5,22
19,39,42,6,-16,-14,-19,-55
-42,-6,-1,87,25,5,4,38
-3,0,2,-76,-19,-9,-5,-21
7,38,75,75,0,7,5,14
-7,-12,-4,73,19,10,11,2
4,-54,-28,-40,-23,-2,-7,-33
-3,-2,-73,42,14,-11,-4,16
-17,-38,-69,-59,-25,1,-6,-23
30,21,41,52,63,10,8,33
12,25,70,-55,-75,-14,3,-30
-23,-18,-35,96,41,11,-3,71
37,-30,-56,-16,4,6,-19,-13
-60,-22,-95,36,19,-7,-5,-39
9,-1,65,101,14,-2,-3,-11
-1,13,6,-58,-6,2,6,-7
-23,-40,-114,-10,-26,-20,-4,-1
1,-3,106,-9,-31,-14,-7,2
-7,47,28,91,22,3,-2,30
-10,-17,70,79,39,-4,-11,-19
2,13,-49,-60,1,11,9,16
-20,-33,-107,-100,-47,-11,1,-4
6,-37,-41,-37,7,-17,-21,-42
12,35,16,-22,4,5,-4,-10
-2,9,31,39,2,-10,-7,6
-10,-16,-13,-4,7,-2,3,-10
-29,-60,-88,-75,-32,-9,-3,-62
-3,-25,-74,14,-15,0,11,53
11,29,64,-7,-13,-18,-17,-44
3,50,111,60,14,-2,14,50
-2,-30,-128,-119,-36,6,-17,18
13,22,-21,-5,-14,1,-5,-24
-34,-21,31,9,-6,-7,2,-9
8,-3,45,-31,-23,-5,-13,1
-6,7,-24,-20,15,-3,4,-5
-14,-8,-29,-8,-8,-1,3,-7
1,-13,-70,10,9,3,8,-13
4,-63,-68,-92,-55,-6,-16,9
15,5,78,127,43,5,14,41
-3,-6,-3,-66,-31,2,-10,-27
1,13,-17,-77,-4,-2,3,10
11,1,-28,4,14,-1,1,-8
6,15,19,-34,-17,0,4,-4
-9,-26,44,93,54,-2,8,0
-14,-25,-52,-33,-2,13,4,-19
16,25,40,-42,-13,6,6,62
-5,-32,-70,-14,-24,-12,-10,-10
-3,8,57,34,25,4,4,-14
0,1,17,-10,12,2,-5,10
-4,-5,-29,-5,-9,-8,-3,-29
4,13,-14,-26,1,1,8,-6
4,-2,12,-27,-21,-15,-4,13
-4,6,44,16,16,12,-8,4
0,-9,-15,11,-19,1,-4,-9
1,13,30,83,63,20,2,-1
2,5,17,0,36,15,9,-2
7,13,31,1,-18,-11,1,13
-7,-3,-22,-5,17,-4,-5,-20
-3,1,-18,-64,-31,-7,-3,-9
0,1,14,2,-10,-3,-6,-4
-4,-2,-32,-91,-25,-15,-5,3
3,-4,-14,46,6,7,6,-1
1,5,18,39,19,6,5,-4
1,4,-35,-42,-7,2,-3,2
-1,4,41,21,-6,-13,-6,5
-6,-6,-6,-18,-40,-6,-5,-12
2,10,12,29,57,14,9,6
-3,1,2,-52,3,8,6,1
2,7,22,14,2,1,1,5
-5,-8,-23,-38,-19,-10,-9,-10
-3,2,-2,-34,-21,-12,-5,-6
1,-5,6,-9,-14,-8,-3,0
0,-5,7,6,-5,2,-1,-2
2,0,8,-7,18,4,0,-1
0,3,0,-34,-22,-4,-5,-1
-5,0,22,29,21,-2,0,-2
-1,-1,15,13,6,2,0,5
2,1,11,30,18,8,4,-2
-3,-1,-4,-8,-11,-4,-3,-1
-4,2,-12,-5,-28,-8,-4,-3
3,3,-8,16,12,4,5,4
3,0,-9,1,2,4,-1,-1
3,-1,-7,-35,-31,-12,-8,-4
6,0,1,36,18,10,2,0
0,2,-10,4,2,3,1,1
-1,6,23,37,-3,-8,0,-3
-5,-5,-29,-44,-21,-6,-3,-2
-4,-2,5,-14,-11,-6,-3,-1
-1,-2,-7,-7,4,0,1,2
-3,1,-9,-17,-23,-14,-5,-3
1,4,15,59,60,15,2,-1
-1,-4,-3,-6,-4,0,1,-2
-1,1,5,10,0,-2,0,-2
-2,0,-4,-29,-3,-7,-4,-2
-2,0,6,5,-49,-16,-5,-3
-1,-2,-2,-20,-28,0,-2,1
-2,-2,5,21,-7,4,-1,2
-1,-2,-9,-22,11,5,3,0
-1,-2,1,6,-4,-3,0,-2
-1,1,5,15,-11,-5,-2,-3
-1,2,10,-30,-19,-6,-3,-1
-3,0,-33,18,21,3,0,0
-5,-8,-6,12,4,-1,-5,-4
-2,0,46,-7,-13,-5,-1,3
-1,-1,-9,0,20,5,1,-1
1,4,52,20,15,4,1,1
3,1,-56,-21,1,-2,3,0
-1,-2,-7,-46,-22,-8,-5,-5
-1,-11,2,30,17,-2,-2,-3
-1,-7,-28,-12,-1,2,-4,-5
-1,7,14,-2,-11,-2,-1,-1
1,3,-7,-16,9,1,-2,2
2,12,78,109,14,5,2,3
1,6,12,-44,-7,0,2,2
-4,-6,-40,12,-1,-4,-4,-3
0,1,-13,-20,4,2,-1,-1
1,-9,-33,-10,-5,-5,-1,0
0,6,73,26,10,0,-3,-2
2,4,27,15,-23,-7,-4,-2
-13,-24,-58,-11,-8,-3,-4,-6
-2,0,-10,5,3,0,-1,0
2,8,-12,-1,12,4,3,1
-6,-4,10,-36,-15,-5,-3,-3
0,4,11,13,-8,-5,-2,1
-1,1,-20,-23,4,1,0,1
-4,-14,-41,-14,-15,-5,-6,-5
3,6,42,11,12,3,-1,-2
4,3,8,22,0,3,1,1
-3,-3,-14,-24,-1,-1,-1,-1
1,-1,-3,2,3,0,1,-1
-1,-3,-13,-27,2,1,0,-2
0,-2,15,87,12,3,1,-2
-4,-1,-10,-85,-17,-7,-2,-3
-3,-2,6,32,8,-5,0,0
3,-2,-10,-23,-28,-2,2,3
3,2,-10,15,35,6,2,0
2,11,63,52,11,4,1,1
-3,-9,-25,0,-3,2,-1,0
-5,-6,15,-10,-2,-5,-5,-3
-2,5,3,-40,-30,-10,-3,1
-1,-5,-11,12,8,3,0,0
1,1,16,24,22,5,3,2
