0,-1,-4,5,11,2,-1,-1
0,-2,19,-1,-19,-3,-3,0
0,-1,-29,-29,-11,-2,2,-2
-2,-5,0,12,8,-2,1,-2
0,-2,4,14,1,-6,-2,-2
3,2,14,-3,3,8,1,2
0,-1,-19,-17,-12,-4,-4,-3
-1,0,-11,-19,-5,-4,-1,-3
-1,0,-2,10,16,2,4,0
-4,2,6,19,-5,-5,1,-1
-3,2,8,4,2,0,-1,0
0,-1,-4,-13,-8,-4,-3,-1
0,-3,1,-4,-6,0,-4,0
0,-5,-6,0,7,2,-3,-2
0,0,24,8,-9,-2,-4,-2
2,-1,-28,-10,4,2,-1,-2
-1,0,4,2,0,-1,-1,-2
-2,-2,-9,-7,3,-4,1,0
-2,-1,10,13,5,-2,-1,-2
-2,-2,-6,-14,-5,-2,0,0
2,5,47,48,-5,1,3,0
-1,-5,-27,-29,4,0,0,-1
-1,-2,13,2,1,-2,0,0
-2,0,5,3,2,0,0,-1
-3,-2,-14,-33,-3,1,-2,-1
-1,-1,7,10,-8,-7,-4,-1
2,2,-1,15,-2,3,0,1
-1,-2,-1,2,-1,-2,0,1
-3,-1,-15,-5,-4,-2,-2,-2
-1,2,-1,3,-3,-3,-3,-1
1,-1,-7,-11,4,-3,0,-2
1,1,12,4,1,2,-1,-1
0,-5,-15,-7,0,-1,0,0
-1,0,8,6,6,3,-1,0
-1,-1,-4,-8,0,-2,-2,-1
-2,-1,6,9,1,-1,-3,-1
-3,-2,1,-4,-1,-2,-3,1
-2,1,-2,-8,-6,-1,2,0
-1,0,17,5,-1,-3,2,-2
-3,-3,-4,0,-1,-2,2,-1
0,3,-8,-8,-16,-2,-2,-3
-1,3,8,18,21,4,-1,0
-1,-2,-6,-14,-5,-2,-3,-4
2,-1,-5,-9,0,-3,-2,1
-2,-4,17,26,4,-2,-2,-4
-1,-1,-1,-9,-12,-4,-3,-2
-3,-3,-3,5,4,-2,-1,-5
-2,-2,7,5,-3,-1,-3,-1
0,-1,7,-14,-6,2,1,2
-2,-4,-19,-5,3,-1,1,1
-4,0,-25,0,1,-1,-2,-1
-1,-1,-9,-10,-3,-1,0,-2
-1,-2,-1,-2,-5,0,2,-1
2,-1,2,3,-1,-3,-1,-2
0,-2,5,-1,4,0,2,3
-4,0,-2,11,2,-2,-2,0
-2,0,-14,-5,5,-2,1,0
-2,-1,5,-2,-7,-1,-2,-2
0,1,6,-1,-4,-1,-1,0
-2,1,2,1,10,1,-1,-3
0,0,1,-13,-10,-1,0,-3
-2,-1,-13,-15,-9,-3,-3,-3
1,-1,13,22,8,0,-2,-1
1,-1,-6,-12,-7,-1,-2,-1
1,-2,-12,-6,6,-3,-3,-1
-2,-2,4,0,-3,-1,-1,-2
-3,-1,3,2,-5,0,-2,-1
-1,-2,-9,-22,-7,-1,0,-2
-3,-1,11,31,11,1,0,0
-1,0,-1,1,6,0,2,0
1,-3,-5,6,0,0,0,0
-3,-1,17,8,-8,-2,-3,-3
-5,-3,-26,-30,-13,-3,-4,-6
-3,-4,-1,9,0,0,-1,-4
-2,-2,-1,-8,0,0,1,-1
-1,0,-4,-5,-4,-1,-1,1
1,-1,5,16,2,-2,0,1
3,-2,0,-12,-1,-4,-1,0
0,-2,-10,-12,0,-2,-1,0
0,-2,5,12,-4,2,-1,-1
-1,-3,4,-14,-10,-3,-1,-2
-1,-2,-43,20,34,9,1,-1
2,3,17,-23,-37,-4,-1,-2
-2,0,-20,-1,5,-1,2,1
-4,2,1,1,8,0,0,1
-1,2,12,-10,-17,-3,-1,-1
-1,-5,-16,6,9,1,-3,-1
1,-1,-4,-2,-1,-5,-2,-1
-2,-2,-5,-7,0,-3,-3,-3
-1,-1,16,14,-7,-1,-1,-3
-2,2,-8,-6,11,1,-2,1
0,0,13,5,-7,-1,-1,3
-1,-1,-4,-3,9,2,-1,1
0,-1,11,9,-2,-2,1,0
-1,-2,-4,-2,0,-4,-3,-3
0,-3,-4,-4,0,-4,-2,-3
1,0,20,5,-8,0,-1,-2
-4,-5,-42,-18,1,2,-1,-3
-3,-3,-1,-14,-18,-2,-2,-1
0,-1,13,38,30,5,2,1
-2,-5,-12,-18,-2,0,-1,-2
-3,1,12,-4,-6,-4,-3,0
0,0,2,-2,-11,-5,-2,-3
-1,2,-3,-11,3,4,1,-1
-1,2,3,19,-1,0,-1,-1
0,-1,2,-8,1,1,-3,-1
0,-2,2,0,7,-1,0,0
0,-2,4,-5,-7,-3,-2,-1
3,-2,-7,1,0,-1,1,0
2,0,6,-3,-2,-2,1,0
-2,-1,-3,7,4,1,0,-3
-2,-2,-2,-4,-3,-2,0,-4
-4,0,-9,-10,-12,-3,0,-2
-4,-2,5,4,-3,-4,-3,-1
-2,0,0,9,12,-1,0,0
0,-1,2,1,-9,0,-1,0
0,-3,-5,3,24,2,1,-1
0,-1,3,-6,-13,-2,1,0
-1,2,4,0,5,1,-2,-2
-1,-3,-14,-2,1,-3,-4,-4
1,-4,-6,1,-9,-2,-4,0
-2,-5,3,0,0,-1,-3,0
-2,-2,-9,-3,-1,-2,-1,-1
-4,-3,1,-8,-6,-2,-1,-3
-1,1,2,-4,-4,-2,-3,-1
1,1,7,4,-2,0,0,-3
-1,-2,-1,4,0,1,1,-3
0,-1,0,-7,-1,-2,3,0
-1,-3,-10,-4,4,-1,0,-2
1,-1,16,3,3,0,0,0
0,0,-17,-25,-7,-4,-3,0
2,2,12,16,10,-3,-3,-1
-5,2,5,20,-4,2,-1,1
-2,1,0,-2,0,-1,-2,-3
-1,-2,-3,-3,-7,-2,-3,-1
-2,-4,-15,-20,-4,-1,-2,0
-1,0,14,3,4,-1,-4,0
-1,-2,-3,6,-6,-2,-1,0
0,-1,6,5,1,1,-1,-1
0,0,-2,-4,-9,-3,-2,0
1,2,-4,-6,0,-1,0,-2
0,0,-6,-3,-4,1,0,0
2,-1,-4,3,4,1,0,-1
1,-2,1,2,-5,1,1,1
-1,-2,-4,-6,-6,-1,-2,-1
-3,-1,-5,-4,-2,-4,-2,0
-5,-1,5,4,2,-1,-3,-2
-4,-1,-3,0,4,-3,-3,-6
-3,-1,-1,-11,-13,-6,-3,-2
2,2,-2,9,12,4,0,-2
-1,3,6,9,7,2,1,-3
2,-1,-7,-7,-1,1,1,-3
-1,-9,-15,-12,-9,-3,-1,0
0,5,9,15,6,-2,-2,-1
-3,-6,-6,-2,-13,-2,-2,1
-1,6,19,18,-1,-1,1,0
-1,-7,-4,-15,-4,-1,-3,-1
1,-7,-27,-18,-5,-1,0,0
-3,-5,-4,-1,2,-2,-1,0
-1,-3,-3,-5,-4,-1,0,2
-2,4,9,8,5,1,-1,0
-3,-1,-1,-7,-7,-2,0,0
-2,1,4,-2,5,-1,-4,0
1,0,-3,-8,1,3,5,0
0,0,20,33,8,0,-1,-4
0,0,-8,-7,-2,-4,-10,-4
1,0,6,8,9,-3,3,0
-4,-4,-13,-9,-15,-1,-2,0
-2,7,18,4,8,4,2,0
0,-9,10,-5,-9,-4,-2,-2
12,8,-9,1,13,0,-1,1
-8,-21,-11,-9,8,1,-1,-1
-8,-5,-30,-13,-18,-4,-1,-2
12,11,18,15,16,2,0,2
3,6,-3,-13,-6,1,-1,1
-7,-5,18,-4,0,-3,-2,-5
-5,-1,-11,1,0,-1,-2,-1
-6,-6,2,-2,-12,0,2,0
4,0,-9,-5,0,-1,3,4
0,4,13,2,-10,-3,-4,-1
-2,0,-9,-7,5,-3,-4,-4
-7,-5,-4,5,9,-1,1,-4
-1,-2,5,4,-18,-3,-1,-4
-1,4,-15,-16,-3,3,-1,-2
5,0,14,11,-4,-1,0,0
4,3,9,-1,3,1,2,0
-7,-8,-18,-6,-5,0,-3,-4
0,1,0,-9,0,-2,-4,0
6,0,0,3,-4,-7,0,6
-10,-2,-7,-8,-5,-1,-2,-4
-7,8,17,15,2,4,-3,-11
17,5,-12,0,-9,-11,1,8
4,-11,0,-5,11,2,2,5
5,-5,-2,8,-6,1,1,8
-16,0,29,-5,-3,1,0,1
-7,9,-43,6,1,1,-4,-7
-2,3,3,-8,-10,0,-2,-2
-1,9,2,0,-11,-1,-1,-3
1,-32,8,0,9,5,2,0
-11,-12,7,6,-14,-2,-2,0
-5,0,-16,2,11,-2,-3,-4
-7,2,1,-20,-14,-6,-6,-7
-11,18,1,-5,-5,-5,-8,-10
14,13,15,22,19,8,4,-3
42,-2,-16,-35,-15,3,12,30
-36,-35,8,-2,1,-8,-11,-17
75,56,-9,8,12,12,19,33
-14,-64,-25,-24,-21,-17,-14,-10
-32,22,35,16,17,3,-8,-23
-5,-6,-10,19,14,-1,-1,-4
-14,-2,11,25,-14,-9,-4,-2
45,28,12,-42,-1,17,17,31
23,1,-7,5,-5,-5,-4,-3
-17,-3,-8,-36,3,-2,1,-2
-29,-24,-15,2,-10,-13,-15,-23
-33,19,11,8,-1,-5,-5,-9
48,16,10,10,7,7,6,22
6,7,4,-5,-2,6,6,9
-13,0,-21,-2,-12,-4,-4,-5
-12,-13,9,-7,7,0,-3,-11
-12,-11,-29,-14,-12,-7,-9,-7
46,21,13,6,10,15,22,33
-20,-23,-25,-1,14,-8,-8,-6
-53,1,14,7,4,-6,-15,-28
20,5,8,-20,-39,-8,-9,-2
12,-13,-24,25,40,12,13,7
28,-1,-8,-18,-11,1,12,17
-18,8,34,47,24,10,3,-4
24,31,-20,-7,19,9,8,11
-23,-52,-17,-35,-13,-17,-23,-18
-10,-9,6,-3,-24,1,0,-6
-8,8,7,21,-38,-5,-1,-5
-5,0,-1,-69,-16,-6,3,11
15,19,-5,67,58,28,14,7
-10,-16,8,-6,-19,-18,-8,-10
3,42,46,31,25,6,-8,-14
-14,-28,-17,-17,-4,-8,-8,-15
5,-7,-7,-39,-80,-28,-19,-12
-3,19,-8,27,84,31,5,14
-20,-25,-22,-49,-13,-5,16,8
2,24,21,84,15,-12,-26,1
-7,-41,-21,-42,-72,-37,-20,-13
6,-7,7,-14,-3,1,-13,-11
10,34,-6,-5,-12,3,11,8
-55,-32,-9,-25,-25,-17,-20,-17
30,57,20,56,81,40,16,26
8,-57,-15,-38,12,1,18,-31
-10,73,-12,50,-35,-5,-47,-31
-9,-105,3,-23,-4,-3,17,64
7,96,27,46,-71,-23,5,24
22,-74,-34,-30,-14,8,4,1
-2,-4,-9,-29,-7,3,61,0
-30,13,25,48,25,0,-60,-64
-4,-28,-7,-58,-24,-42,-39,-7
-18,28,-6,22,25,17,28,3
43,32,-7,-17,-25,-7,-5,1
15,-32,1,-3,-22,16,28,29
-13,-8,-25,-15,45,6,5,-5
12,84,19,-10,-61,-25,-25,-12
12,-54,-35,6,43,5,-17,3
-37,79,26,25,29,15,33,-10
39,-33,0,-21,-1,15,15,0
-6,84,53,52,-13,-18,-9,18
-6,-43,-30,0,51,-4,-32,-2
-31,-75,-22,12,22,17,19,-25
-10,21,5,-20,-6,-18,-11,-11
33,-57,-10,1,0,9,-5,22
4,89,34,-15,5,6,12,10
-2,-66,-13,27,-27,-7,-9,-9
-31,-29,-18,-16,-28,-8,-20,-29
28,20,18,17,47,25,78,31
-22,21,-16,-25,-14,-17,-55,8
30,52,24,9,-23,0,22,10
-45,17,17,1,-40,2,-6,-8
-58,-75,-24,-4,-24,-18,-23,-39
-23,-9,-27,-51,-10,-2,17,-5
61,113,35,-15,-11,-5,-28,12
16,-25,-35,33,48,3,-8,24
10,24,33,-12,18,20,38,16
-4,-37,16,32,14,1,-11,-3
-50,-28,-29,-17,-8,-11,-37,-27
96,88,13,-29,-5,-1,42,19
-45,-99,1,41,-1,-20,-16,38
64,81,22,24,15,35,15,10
-10,-76,-48,-35,14,-24,3,-8
-96,-26,-17,-28,-8,-8,-28,-41
34,32,-13,-11,-4,-2,-3,-8
71,31,-4,8,-11,6,28,10
-22,-36,29,35,9,-8,-31,-10
-59,-63,-6,-25,-11,18,5,1
-8,53,-26,-55,-23,-16,-72,-38
-11,-43,-9,37,-32,-14,28,44
27,-13,-51,-81,-21,0,-4,-31
7,45,31,45,-17,-2,1,7
55,8,25,32,-53,7,-7,21
-57,-28,-21,-49,6,-7,0,-46
-4,82,33,42,63,39,21,14
-1,50,20,32,39,28,35,21
-17,-23,-31,-61,-30,-17,12,-8
42,8,3,6,28,-3,45,39
-37,-85,-42,2,-37,-38,-75,-27
-36,41,43,-58,-96,-16,5,-19
19,9,13,65,119,48,4,3
-69,-19,9,-46,-73,-7,13,-15
107,71,25,-11,-16,-1,25,41
-36,-92,-83,-45,35,7,18,-12
-73,-26,17,-55,-113,-36,-29,-62
-12,52,39,112,81,45,17,67
37,111,109,97,35,8,48,27
45,-88,-97,-68,-29,-18,-34,-25
31,72,14,7,15,6,30,47
-70,-26,-67,-92,-50,-19,-22,-82
30,-58,63,48,24,-8,-20,24
5,99,-4,41,34,-11,-15,-4
-61,-40,-14,76,29,-1,-34,-41
35,-70,-18,4,-83,-32,-20,-13
-13,-31,-74,-88,3,26,43,34
-21,24,38,17,5,-12,-17,-1
51,-8,-57,-75,-27,-36,-18,-27
-26,60,87,63,41,28,28,28
31,-73,-9,-54,-11,7,4,-8
-42,63,5,-14,-36,-15,-40,-28
13,-38,-46,-20,-6,4,27,34
45,-106,-21,-82,-32,-42,-86,-18
37,118,-4,59,25,30,37,13
-12,-16,17,0,2,-4,-2,-4
-26,32,28,20,18,9,-10,-9
10,11,13,45,16,14,32,-1
-7,28,-48,-108,-95,-20,20,33
11,-66,60,83,69,33,9,26
1,40,-21,-58,-16,-28,-30,1
-13,4,32,49,29,7,-19,-20
-41,15,-18,-1,-16,-6,11,-30
-59,-64,-23,41,11,9,22,45
31,70,32,-27,-38,-29,-19,-22
-34,-34,-20,-45,0,60,47,4
-17,-25,-34,47,10,-53,-78,-28
57,108,65,-1,0,9,15,-27
-2,-12,12,21,22,44,58,74
-3,-44,-106,-76,-59,-37,-1,48
-63,-38,35,-21,6,26,22,-34
50,-25,2,-6,15,-8,-4,-2
-15,37,15,85,72,37,-10,-22
29,-10,27,12,-25,-14,15,-5
-72,39,-20,-49,-48,-16,-40,-23
66,-71,-52,-2,-58,-35,-6,25
5,42,15,8,63,10,21,-13
26,-19,41,-18,-26,-26,-22,9
-17,54,16,32,55,43,55,-10
9,-60,-84,-54,-9,-50,-73,-16
-63,-60,21,74,-16,6,5,-12
73,54,13,-11,11,4,-25,-7
-4,30,-3,-24,-24,-17,1,-27
-53,93,7,17,-60,28,20,17
66,39,-16,-58,-7,-16,-1,18
-71,-72,-77,-43,12,-40,-22,-38
-32,-40,10,4,-48,21,-1,4
15,24,52,8,15,17,-1,-15
-14,-53,-48,-47,-26,-24,-36,-16
-69,-74,-26,-23,-51,-11,8,-9
127,122,13,43,41,1,8,40
-37,-93,5,33,10,16,30,-11
-23,18,-9,-35,-8,-28,-13,21
-49,-14,-24,-76,-3,0,-42,-37
66,29,80,67,41,38,59,19
4,17,-14,-27,9,2,1,-1
-24,-29,-5,10,-11,-22,-18,-17
19,-28,18,14,27,-13,-25,14
-61,23,-31,-17,-7,24,7,-39
-8,-64,41,54,-19,8,9,-9
66,-7,-33,-31,-29,-3,36,51
13,21,14,-39,8,-18,-20,-8
-22,36,43,114,-3,26,-5,-7
17,-74,-66,-76,-23,-12,2,-22
-27,22,6,-26,-32,2,8,-1
40,34,-6,76,37,30,17,22
-27,-65,-19,-67,-26,-41,-27,-11
-8,52,40,-3,25,10,6,4
-7,-3,55,49,10,8,-13,-7
5,18,-19,6,-6,7,13,3
-18,-24,-10,-3,61,-11,-35,-15
-30,-5,-28,-1,-17,-48,-22,-26
64,78,65,41,12,29,33,25
0,-48,-29,-28,-7,-13,-12,-15
-22,-43,-17,-23,-13,-17,-20,-1
23,24,20,-3,16,25,10,13
-40,-33,-32,-29,-25,-17,-9,-18
10,45,53,65,33,3,-4,-3
6,-30,4,-48,-49,-19,1,13
2,29,-17,24,56,8,3,5
-36,-25,34,-6,-28,-32,-24,-30
19,30,5,7,2,8,-6,9
-1,-12,-10,-5,3,2,17,12
16,42,2,-4,-4,20,12,11
-15,-14,-9,-18,-9,4,-5,-9
1,4,-7,15,14,4,7,-8
2,7,-16,-11,0,-12,-7,-2
4,8,-25,-23,-9,-4,0,3
-3,-1,7,21,18,8,0,-5
5,21,-3,19,8,9,8,10
-10,-23,-9,-5,-6,-9,-11,-7
30,38,31,-10,-3,7,10,10
-9,-30,-9,-16,-2,7,-3,-6
2,11,-17,15,0,2,8,-1
