0,-5,-11,2,11,6,1,1
-1,-2,1,2,6,5,3,-1
0,-2,-6,-1,-2,-4,-1,-2
-2,1,-1,-6,-7,-3,-1,0
0,0,4,-6,-9,-6,-4,-2
1,0,-1,-1,-2,-4,-3,-2
0,0,-4,-3,0,0,-2,-1
-2,-3,2,2,2,3,1,0
1,-2,2,-2,-4,-5,-4,-1
-2,-3,-7,-8,-8,-7,-4,-3
0,4,9,7,6,4,0,1
2,-3,-4,14,17,8,6,2
-2,-4,-4,-4,-3,-2,-1,-1
-3,-5,-21,-15,-9,-4,-3,-2
0,-2,0,-8,-11,-6,-5,-3
-1,2,7,1,-1,1,-1,-1
-2,4,10,4,-2,0,0,0
-1,-1,-3,-2,-4,-2,-2,-1
-2,-3,-3,-2,0,0,-1,-1
-1,-2,1,0,2,0,1,-1
1,3,1,6,7,5,6,1
-1,-2,2,2,3,-1,-1,1
0,-4,0,4,1,1,1,0
0,-5,-19,-12,-10,-6,-6,-3
-1,-1,5,-5,-9,-4,-3,-2
1,3,2,1,0,1,1,0
-2,1,9,1,-2,-2,0,-2
0,-1,-1,-2,-8,-4,-4,-2
1,1,-1,1,7,0,-2,0
1,-1,3,5,5,7,4,-1
0,1,-8,1,3,1,0,-1
-4,-2,3,-7,-9,-5,-2,-1
-1,-2,-7,-1,-2,-2,-4,-3
-2,0,1,-3,-4,-4,-2,0
-2,-2,2,1,0,2,0,-1
0,4,9,2,3,2,1,1
1,-3,-10,0,0,-2,-1,-1
-2,-1,-1,-4,-5,-3,-3,-3
-1,-1,-4,-4,-2,-3,0,-1
-1,2,-1,-4,-4,-4,-1,-1
-1,0,4,0,-1,2,0,-1
0,-4,-6,2,11,4,-1,1
-1,-2,-6,3,1,0,-2,-1
-1,0,2,-3,-2,-1,-1,-2
-3,-1,8,-3,-3,-5,-1,-2
-2,-2,-2,0,-8,-3,-1,-3
-1,-4,-12,-5,1,-1,-1,-1
-2,-1,-7,0,1,1,-1,-1
0,-2,0,-5,-4,-1,-2,-1
-1,-1,8,1,1,1,-1,-2
-1,-2,-11,3,3,0,-1,-1
-2,-1,-4,-4,-2,-3,-2,-3
-1,0,-3,-4,-4,-3,-3,-2
0,0,6,1,-4,-3,-2,0
-1,-2,-3,-5,1,-1,-1,-3
1,-2,0,4,5,3,2,0
0,-1,-8,-3,1,-2,0,-1
0,-2,2,-1,-4,0,-3,-3
2,2,7,1,-2,1,-1,0
-3,-4,-15,-6,0,-1,0,-1
-3,0,11,2,-3,-2,-2,-1
1,-2,-15,-7,-3,-1,0,-1
-4,-2,-1,-2,-4,-4,-4,-2
0,0,7,3,1,2,1,-1
-2,-4,-10,-2,-4,-1,1,-1
-2,0,3,0,-4,-4,-1,-1
-3,0,1,1,6,0,-1,1
1,-1,-2,-6,-1,1,-2,-1
0,0,2,0,-6,-2,-3,-2
3,3,1,1,4,0,0,-1
1,-1,0,1,-2,1,2,1
-6,-1,1,2,0,-1,-1,-2
5,-3,-2,3,2,-1,1,-2
5,7,-7,-7,-2,-2,-1,4
28,13,7,-2,-8,-2,-2,-2
-15,-6,4,4,2,-1,-1,0
-17,-8,-29,-11,0,1,-1,-1
-39,-17,3,0,1,-4,-5,-12
-17,-17,-12,-7,-6,-4,-5,-8
31,19,19,3,-2,1,-1,0
-83,-24,24,6,-2,2,-2,-12
27,3,-23,-5,4,1,1,5
9,20,11,0,1,0,1,3
27,11,0,2,-2,-1,3,6
39,29,14,8,0,3,1,6
-13,-13,-14,-11,-6,-4,-2,-4
-9,-7,-4,-2,-2,-1,0,-1
1,10,-7,-1,-1,0,0,-1
34,2,-9,-2,0,-1,-3,6
-60,-32,26,10,0,-2,-2,-9
28,-10,10,-3,1,0,1,0
-38,-14,-27,-9,-5,-2,-2,-8
3,11,19,7,4,-1,2,8
-4,-25,-19,-8,-3,-3,-5,-14
-36,6,19,7,-4,-3,-3,-8
-19,-16,-33,-14,-2,-1,-2,1
47,24,4,-1,2,0,1,5
-15,6,10,4,0,3,0,4
12,-12,-3,2,2,-1,-2,-1
-5,11,9,-1,-2,-2,-5,-10
11,-1,-22,-5,-3,-2,2,6
22,9,13,1,-2,-4,-2,2
4,-2,-11,-3,-2,-3,-1,0
-44,-25,-1,2,1,0,1,1
23,7,-1,0,2,0,2,-4
19,29,4,7,-2,-4,-9,3
-17,-18,1,0,1,1,-4,-6
14,-23,-10,-14,-3,-5,-3,-3
-69,-27,-2,-6,-8,-4,-8,-27
91,37,1,13,6,10,19,37
43,44,2,-18,9,4,11,-2
-43,-13,6,7,4,-6,-30,-10
-80,-65,-19,-8,-14,-9,-17,-17
61,-15,-2,-4,-15,-12,-3,-6
21,-1,-12,-19,8,7,7,7
37,51,17,1,-4,0,12,21
-65,-30,-4,-6,-9,-9,-22,-30
-49,-6,-15,-3,-2,-1,-5,-8
20,-5,6,5,1,2,-2,15
37,37,-13,8,-1,2,13,-7
54,-2,8,-11,-2,3,14,16
-56,-42,-9,6,5,-7,-20,-15
0,20,-13,-2,-3,-3,8,13
87,43,10,-5,2,9,8,35
-36,-11,1,11,7,-6,6,-17
50,13,4,7,-9,8,15,-15
-84,4,3,7,23,4,-13,-1
-35,-53,11,6,-25,-20,-44,-18
30,30,3,26,25,25,29,40
56,-17,2,-24,-2,2,48,35
-42,-39,-1,-25,-9,-6,-15,-26
-43,-22,-13,33,23,8,38,2
-34,1,-6,-45,-16,-12,-52,-39
-29,18,6,40,-17,-12,-43,-18
59,31,33,7,9,20,75,65
-54,-80,-56,-50,-15,-28,-68,-74
38,45,11,12,1,-3,-36,-20
32,11,11,35,12,0,3,3
119,110,30,0,-3,16,61,38
-108,-34,-18,21,-11,1,18,28
-90,-108,-48,-54,-5,-20,-30,-40
61,71,24,11,-28,-11,-11,3
38,30,-38,-27,25,11,-8,-3
-29,-36,42,10,11,31,77,32
66,110,43,27,1,-7,-63,-4
-128,-50,9,-19,-4,5,17,-1
2,-22,-37,20,-7,-16,-2,5
0,-60,10,34,-15,-6,-34,-43
60,39,-44,-68,0,-7,47,52
31,-14,13,-17,10,9,26,1
-102,11,55,72,1,-7,-28,-32
100,115,25,-30,2,-7,-2,6
-4,21,28,35,5,-2,7,-15
-83,-54,-37,11,3,7,-5,-11
-95,-108,-39,-60,-10,1,2,-15
68,80,35,-24,0,-6,-7,9
107,23,-2,36,4,15,35,27
-15,-9,-2,-35,-4,6,15,27
47,3,-6,52,9,5,-12,-24
-57,-20,-4,2,12,-15,-11,-17
-17,44,-18,-7,-8,9,25,10
84,59,21,22,3,-6,-18,24
-88,-100,-45,-71,-43,-26,-56,-79
34,102,-46,2,16,10,19,31
-24,-71,7,-6,-2,-8,-19,-28
-21,-47,-3,-13,-15,-4,-8,-34
80,117,5,5,10,0,19,64
-52,-53,53,42,14,-2,-40,-65
14,-33,-62,-38,-22,9,61,53
-4,104,21,-10,11,13,-25,20
55,70,46,19,-4,-7,11,-10
-128,-9,-47,-69,0,-11,-53,-17
80,-74,13,13,-4,1,0,1
103,107,29,-34,-2,12,28,65
-103,-71,-49,47,13,-12,-43,-27
127,95,99,9,-18,24,15,17
-99,23,-36,78,58,11,25,6
-29,-26,-38,-30,-10,-14,5,4
-84,96,-7,-16,-12,0,3,-12
118,-68,32,13,4,-2,34,36
-119,-20,8,10,-26,-12,-42,-80
87,39,-53,-24,43,25,73,83
-86,-128,-22,14,-5,-15,-33,-86
113,53,6,-19,0,11,24,76
46,60,86,14,-27,-15,-18,30
-128,-118,-8,-17,16,-19,-98,-74
127,52,-28,-32,-15,8,18,32
-96,10,-36,0,-24,-40,-10,13
-84,42,85,51,32,36,31,4
-35,-82,-88,-43,-8,0,-11,-83
17,29,1,-6,5,-36,-41,9
45,25,-47,-24,4,20,-23,-28
-51,-4,101,56,2,7,62,24
12,2,-65,-65,-40,-31,21,-34
-52,-16,-44,-21,-14,5,-57,-26
5,-80,-77,-11,-22,-41,16,-19
-4,-28,-61,-12,-4,-17,-72,-31
111,121,127,39,2,35,51,76
40,-89,-73,-22,-18,-16,-65,-11
109,127,41,-10,9,24,57,73
64,-127,11,30,8,-7,-39,-20
-90,9,19,14,16,7,34,9
113,13,-5,-5,5,2,8,47
-77,-48,-17,29,7,20,58,-17
66,44,-27,-37,-14,-20,-42,17
-47,71,95,60,-16,-6,34,-19
9,-38,53,21,3,-6,-1,-7
34,46,-99,-27,20,15,-29,-1
-83,-42,16,-17,-12,-4,21,-21
92,13,-44,12,-4,-9,-30,5
-12,103,90,16,0,-1,54,-9
8,27,-23,-44,-14,10,-31,12
-22,55,-22,-7,24,14,26,49
-89,-7,-8,33,-19,-48,-40,-46
-16,31,97,-2,2,28,43,14
-80,-66,2,42,2,6,-9,-6
24,36,-11,-37,-8,-2,-1,-19
96,56,29,23,6,21,65,91
-18,-117,-56,-12,8,-11,-35,-39
-90,-55,-9,-26,-37,-10,-5,-55
31,82,52,6,4,11,-13,23
-71,-128,-71,-28,23,-13,-8,-8
31,127,69,17,0,30,33,37
17,-81,25,12,-16,-6,-19,-43
61,-59,-87,-23,-2,-21,4,-10
-92,-52,11,7,0,8,48,20
104,115,-4,-3,1,-2,-10,20
-75,-73,58,4,6,-11,-21,-57
53,32,-53,-40,-18,10,10,-1
26,53,-19,-27,-17,-25,-54,-50
-57,-84,-11,1,-2,16,69,28
-19,83,44,55,-3,-14,-33,-6
-20,-54,-18,-38,3,-19,-43,-49
-22,-71,-55,-38,-1,0,-30,-23
-4,80,48,46,25,20,24,47
-3,-76,-55,-44,4,-12,-9,-17
69,46,6,24,6,7,39,48
48,15,36,14,-12,1,-5,-35
-128,-105,-42,-18,-13,-18,-46,-47
118,57,90,35,19,17,48,49
-128,-51,-9,36,-46,-28,11,-47
62,-21,-57,-53,17,8,-77,19
47,-4,20,6,9,37,42,36
9,-83,-10,20,12,-1,-5,14
91,90,31,6,-7,-3,-1,22
-116,28,-14,9,-2,1,15,9
-73,-73,-28,-31,-24,-29,-38,-62
-19,90,3,-18,-1,-7,15,14
26,21,16,23,18,7,-19,14
78,47,60,53,23,6,5,-1
22,22,26,0,-24,-18,-15,16
-45,-47,-56,-34,24,21,38,1
76,34,10,-21,6,-7,-11,3
0,-54,-9,-9,-8,-5,-9,-24
60,-9,-46,-10,-16,-31,-39,-2
-17,-40,-11,-3,-8,16,17,1
-92,-12,-11,-17,-2,-5,-13,-37
68,80,70,27,-6,-2,-11,8
-55,-42,-28,-9,8,23,70,24
27,44,20,22,2,-21,-40,19
43,-28,-22,-10,25,15,21,11
-100,1,30,13,1,12,11,8
74,-7,12,39,-22,-11,7,-15
11,80,-19,-51,-17,7,-21,-21
18,31,-13,-1,22,9,69,52
-3,5,12,0,4,27,-27,-23
-48,-18,-51,-14,-1,-4,6,17
-58,9,41,27,-5,10,-26,-25
-39,39,30,8,19,17,60,41
-38,-91,-47,-13,-4,-33,-28,-16
4,31,31,-8,2,25,-38,-18
-110,-14,-29,-19,-9,-16,-10,-15
69,7,12,-3,1,-23,-59,-32
-22,65,45,3,17,40,28,16
48,-33,-92,-33,-16,-12,-37,1
92,-28,14,31,-10,-30,-9,21
-103,14,22,-17,-21,29,13,-29
37,-3,24,-4,2,-38,-4,25
-106,-30,4,-7,-25,-28,-36,-30
39,-20,-42,15,30,27,-8,-8
-80,-20,-10,6,8,-3,-18,-7
-29,15,5,2,-13,18,0,-30
95,106,49,-1,13,17,52,44
-23,-35,26,-1,-17,-27,14,43
-70,-102,-83,16,0,-23,-44,-32
-5,53,-33,-4,6,21,16,-19
31,-51,3,7,15,-8,10,1
19,64,47,4,-12,15,12,-18
24,21,22,28,3,6,17,26
-69,-82,-47,-55,-22,-30,-18,-11
10,-14,-30,-2,5,-14,-2,-7
-28,-11,-18,-14,-3,20,-13,-18
31,38,37,-1,-14,-23,10,5
7,-3,-8,19,1,8,11,9
-23,6,37,-2,6,8,-18,-15
-77,-27,16,6,11,9,17,-14
24,-22,-54,-28,-26,-33,-22,4
-1,-36,-28,-4,-7,-14,-18,-16
-38,28,12,0,-4,17,4,-5
56,44,45,12,-2,0,28,19
-15,-16,-10,-12,23,13,9,9
3,-38,13,11,0,0,-4,0
-18,15,22,14,18,-8,-6,-20
10,-3,-33,0,-12,1,22,11
-18,-12,11,-14,-19,7,-8,3
17,13,-3,1,9,-25,-24,-18
-4,12,16,8,-2,4,25,13
-1,-11,-10,-5,-1,6,-4,19
24,8,1,-17,-8,-1,-20,-28
8,21,18,25,9,10,21,5
-4,-8,-7,-11,-8,-5,-28,-12
11,-12,-30,-4,4,-38,-15,13
0,0,6,2,-7,13,20,15
11,8,5,-2,-12,-18,0,-10
-12,-6,-3,0,6,25,24,7
8,2,-1,-4,8,-4,-4,4
2,4,-10,2,-2,-9,-1,-30
8,-2,7,2,4,11,8,9
-8,8,18,-4,-3,-13,-10,0
-1,0,-26,-2,-7,-9,-1,3
5,2,19,2,-1,4,-4,13
4,8,-3,3,6,13,17,-12
-8,-10,-38,-9,-3,-3,-12,12
1,8,22,1,-1,-7,-4,-8
2,0,18,5,0,1,-1,-4
8,10,7,3,-2,-9,0,1
1,7,13,8,6,-10,4,2
3,0,21,6,6,7,1,-9
2,-11,-41,-14,-4,-9,-15,0
5,28,23,7,-4,18,10,14
-5,-2,-16,-8,-3,2,19,-8
2,15,13,-3,2,-3,0,1
-1,-3,-11,-3,0,-25,-22,11
-6,-23,-28,-4,-5,18,26,-13
-11,-11,-22,-3,0,-16,-4,3
2,24,17,5,4,21,10,-6
5,-1,20,8,1,4,9,3
1,3,2,-10,-3,-21,-24,0
4,-6,-2,-5,-2,1,-1,0
-2,-5,-22,0,1,-9,-4,-5
0,-5,2,-1,-5,7,3,-3
3,6,20,4,0,5,-4,4
0,10,21,11,13,13,-4,-1
0,-22,-45,-15,-12,-18,1,-10
-4,-13,-11,-2,-3,-8,-16,4
0,-4,-16,-5,-6,6,17,-6
5,9,37,5,-1,2,-1,-4
-2,-15,-34,-9,2,13,1,6
-6,-17,5,-7,-9,-22,-7,-7
-5,34,8,-3,4,7,0,29
-3,11,5,-4,-1,1,-31,-49
-1,5,35,10,-1,0,6,-1
6,21,1,3,0,3,14,8
-8,-45,-87,-33,-23,-20,-22,-10
-14,-42,-22,-9,4,0,10,9
0,1,12,15,22,10,5,0
4,3,14,-1,-10,-7,-20,-6
-3,-3,-49,-6,-14,-18,-12,0
2,2,-14,-3,5,21,21,12
-3,2,18,0,-6,0,-2,-6
0,2,-27,2,9,16,13,3
-4,-52,10,-6,-4,-5,-5,-9
3,28,12,-1,-11,-21,-8,8
-2,15,-15,-7,-8,0,-2,-6
9,2,8,2,10,20,19,2
2,12,42,13,6,-8,-13,-4
0,-13,-22,-3,-4,-2,1,0
-9,-9,19,-5,-4,-12,-7,-3
-7,-24,-2,-11,-8,2,-3,-4
0,3,1,10,11,-1,-2,-3
4,4,38,18,10,8,8,9
3,6,-7,-3,-7,-18,-5,-4
-3,-13,-18,-14,-13,18,11,-2
3,10,17,4,12,8,-2,0
0,4,12,8,2,-1,0,3
1,-8,-9,13,12,-8,-10,0
-4,3,-23,-6,4,4,1,-2
-4,-3,5,2,-4,-3,-3,-4
2,-6,-5,-10,-14,-15,-7,-1
0,7,9,-6,-4,7,-4,-1
1,9,30,10,2,1,7,1
0,4,1,4,6,5,0,-2
-3,-3,-20,-8,-8,-11,-3,1
-3,-4,-5,-2,4,1,-3,-3
0,13,28,11,5,3,3,3
-3,-10,-39,-17,-9,-10,-6,-4
-2,-10,-8,-5,-4,5,1,-2
2,1,9,-3,-6,-6,-4,-1
-4,-2,-15,-8,-1,3,-2,0
3,6,17,8,6,-3,2,1
1,6,5,8,6,-7,-6,1
0,5,22,2,0,12,7,-1
-8,-13,-33,-12,-10,-12,-6,-4
-7,5,6,-4,-7,3,0,-3
-1,-8,-13,-2,7,1,2,-3
2,0,11,0,-9,-4,-4,0
2,3,15,5,4,2,5,0
1,-10,10,6,14,2,-5,-1
-12,-10,-12,-4,-5,3,4,-3
1,-4,-7,-5,-7,-7,-2,-3
0,4,16,5,-3,-1,3,0
-3,2,-8,3,1,-5,-12,-1
2,-5,-3,-8,-6,-6,-3,-1
0,2,-7,0,0,-1,-3,0
