-1,10,1,-2,-3,-2,-2,-2
-1,-2,-1,-4,0,-1,-2,-3
0,6,0,-2,-1,-1,1,1
0,1,0,3,0,0,2,-1
-1,0,-1,0,0,-2,-1,0
-1,-7,-2,-1,1,2,0,0
0,5,-2,-1,-5,-4,-3,-2
-2,2,-4,-3,-6,-2,-1,-1
-1,-7,3,5,4,1,0,-1
-2,0,-1,-3,0,0,1,-2
0,-5,-3,-2,-1,-2,1,-1
0,1,0,0,-3,0,0,-1
0,4,-1,2,3,-1,-2,-1
-2,3,0,-1,-3,0,-3,0
0,-11,-3,-4,-4,-3,-2,0
0,0,1,3,0,1,0,-1
0,2,-1,1,-2,-4,-1,-1
0,-4,2,1,6,1,-2,-2
-3,4,1,1,0,-2,0,0
-1,1,-2,-6,-2,-3,-2,-1
-2,-13,-1,-4,-8,-4,-2,-2
-3,-3,-3,-3,-4,-3,0,-2
-2,3,0,1,2,2,0,-1
-1,-4,-1,2,0,-1,-1,-1
0,12,-3,0,0,0,0,0
-1,-5,-3,-2,-3,-4,-1,0
-2,0,-4,-2,-2,-2,-3,-1
-1,4,0,2,5,3,4,3
-1,5,2,1,-1,-4,-2,-1
-2,-5,-4,-6,-2,-2,-2,1
-2,2,-2,-1,-2,1,-2,-1
-1,-4,-1,-4,0,0,-1,-1
0,-13,2,4,-1,0,0,-1
-1,-7,0,1,2,-1,-2,-1
-2,0,1,-1,-3,-2,-2,-2
-1,-2,-1,-3,-6,-2,0,-3
-1,-4,-1,0,-2,0,-1,-2
-1,1,0,5,0,-1,0,-1
0,-5,-3,-4,-2,0,0,-1
-1,2,0,-2,-2,-3,-4,-2
-1,4,-3,-2,-1,-1,-1,0
-1,-4,0,-1,-4,0,-4,-3
1,-7,2,1,3,-1,0,0
-1,9,0,0,0,2,-1,-3
-3,-7,-6,-14,-5,-1,-2,-1
1,2,5,5,4,-1,-1,1
0,-1,0,0,-4,-5,-1,-1
-2,-7,1,-1,1,-1,-2,-1
-1,7,-2,-3,-1,-2,-3,-2
1,-1,-2,-7,-4,0,0,0
-1,3,0,1,-4,-1,-2,-1
-1,-6,0,2,-1,-2,2,1
-1,0,2,2,1,-1,0,0
0,-13,0,0,4,3,0,-2
-1,3,-8,-1,-2,-1,0,0
0,4,-1,-2,1,-3,-4,1
-1,4,-2,2,0,0,-1,-1
-2,-5,1,-2,-5,-3,-3,-3
-1,0,-4,-3,-1,0,-2,-2
2,-1,5,3,-1,2,2,0
-5,1,-14,-7,-3,-1,-2,-3
-3,7,-4,-2,3,-2,-1,-3
-1,0,10,-3,-3,-2,0,0
1,-3,-11,1,1,3,0,1
4,2,0,4,-1,-1,0,2
-8,-2,2,-5,-6,-2,-3,-2
0,16,0,4,3,-1,-3,0
2,1,1,-3,1,-3,1,0
-4,0,3,0,-2,-2,0,-2
0,8,-8,-2,-5,-1,2,1
-3,-6,0,0,2,-2,1,0
-5,-1,2,-1,1,-5,-3,-2
-4,-7,-3,-3,-2,1,-3,-5
1,-23,0,0,1,1,-10,-5
11,-1,-2,-1,-1,3,8,8
-7,-7,0,1,-2,-5,0,-1
-12,1,-2,-5,-3,-4,5,-3
-10,3,0,2,2,0,-1,-1
-2,2,-4,-5,-1,-4,-6,-2
-16,-39,-9,-8,-2,0,-2,-1
6,-2,7,7,1,-2,-8,1
7,2,-8,-3,-3,-5,2,2
4,7,3,3,0,0,-4,-3
7,6,-1,-1,-1,1,2,1
0,9,-4,-7,-1,2,1,-1
6,6,-21,2,-2,1,-3,2
8,-13,11,-8,-3,-4,-1,-1
-34,13,2,9,1,-1,-2,-6
6,-1,-16,-3,-3,-1,1,-1
-12,3,16,-3,-2,-3,-2,-4
17,-9,8,7,-1,3,5,-1
21,-1,-26,-13,-3,0,-3,1
-16,7,2,-3,0,-2,-3,-1
-5,3,9,4,-2,0,5,2
-22,-3,9,-2,-2,-3,-1,-3
34,8,22,9,3,1,-3,4
6,-4,-5,4,0,0,1,1
23,12,-19,-8,0,-1,-1,0
-27,-10,-9,-7,-6,-3,-6,-8
-10,12,-4,3,3,0,-1,-3
-7,3,36,3,-3,1,1,2
-3,-12,-15,0,2,2,2,1
29,17,5,3,4,2,1,3
-7,12,-27,-12,-6,-1,-2,-2
-17,0,35,17,0,2,2,-1
26,2,5,-1,0,-4,-4,-1
-15,-7,-4,-10,-5,-1,-1,-2
3,15,41,13,1,0,-2,0
29,7,-61,-12,9,4,3,5
-43,-8,19,-4,-2,1,-1,-6
-29,-14,47,15,0,-3,-7,-7
36,-2,51,26,5,3,3,3
-38,-14,-32,-16,-10,-8,-7,-10
12,-3,-25,-15,-3,-3,-5,-4
61,-1,-41,-20,-5,2,5,10
-10,-27,26,-9,-4,2,3,-6
-50,-1,60,46,21,7,-2,-5
24,-42,-113,-40,-11,-9,-11,-5
40,15,26,3,-5,-8,2,6
-15,9,-6,0,-1,0,-2,-3
30,34,40,5,2,4,6,11
-44,24,52,16,3,5,11,-8
-80,-54,-69,-8,-3,-7,-14,-18
30,-23,36,-9,-12,-11,-7,1
66,-17,-39,-3,-2,4,4,-4
-58,-6,3,-2,-1,-3,1,-2
108,62,52,14,5,-3,-13,-4
1,35,-77,-24,2,6,9,7
110,55,7,-8,-4,0,6,19
-34,-28,83,44,5,-1,-9,-13
-44,-24,-61,-28,1,6,8,5
-4,33,51,14,5,2,10,17
72,16,-16,-12,-16,-10,-7,-1
9,7,-8,-2,0,2,4,1
-27,-19,33,32,3,1,-3,4
32,-11,-42,-4,1,2,3,-8
67,8,-45,-13,2,8,10,12
19,-39,-2,-19,6,-3,-3,5
-31,-38,43,16,-10,-12,-10,-13
-73,-14,-28,-10,-15,-9,-7,-24
-50,-8,11,-10,-5,-5,-6,-1
-18,30,9,1,-5,3,2,-6
61,92,-41,-12,29,19,15,15
105,26,-10,24,3,-2,0,25
-128,-52,36,7,-20,-17,-23,-45
125,14,-6,-32,-5,7,13,28
-68,-3,-15,-17,-4,-3,-3,-15
-68,-28,-33,17,13,-1,-5,-10
-66,-6,0,7,-2,6,23,29
-40,1,9,-1,-18,-15,-20,2
56,101,-15,-32,3,7,2,-36
84,13,23,-3,-12,-6,-5,42
-91,-92,-70,-24,24,-3,-19,-59
21,79,7,39,-15,-4,9,26
111,20,34,22,1,0,1,18
-128,-52,-25,-1,6,-1,-7,-33
62,-17,37,8,-11,-3,-3,30
16,93,-5,2,0,2,10,11
-128,-63,-32,-4,-7,-8,-11,-23
19,-10,-2,-5,4,5,8,-6
39,28,18,3,-3,3,9,11
-118,-128,2,12,19,-8,-15,-28
100,102,14,-22,-19,1,11,37
-65,-38,-22,13,11,3,-8,-19
-47,-28,24,9,-9,-16,-31,-23
25,47,-94,-56,28,14,8,16
-114,-101,8,16,-4,2,11,-22
77,-28,52,33,30,3,14,18
90,104,-13,-15,2,-2,-7,-18
127,72,0,20,-1,-4,-17,-4
-68,-89,-29,-46,-12,-13,-19,-14
-98,-69,13,-20,-34,-10,-5,-19
23,6,-15,17,-14,-4,4,-22
64,46,82,-1,13,16,24,38
11,-18,-12,0,-8,-14,-21,-4
65,49,-23,-3,19,16,19,36
-121,-128,-24,-24,-2,-3,-20,-96
102,55,10,-1,-15,2,20,45
99,-41,40,46,0,0,12,50
-72,52,-2,-31,-21,-18,-33,-54
65,-60,35,7,14,18,35,45
-128,-123,-41,-25,-33,-15,-33,-107
-21,68,2,42,47,26,36,34
103,94,32,-16,-6,-2,9,53
-40,-41,-29,11,-2,-13,-13,0
72,118,4,24,-1,17,25,24
-63,-128,-26,-56,-31,-32,-49,-90
88,79,-2,22,13,17,21,28
-2,-43,-5,-28,-2,-8,-12,3
127,63,17,21,15,7,10,59
-25,28,-50,0,-12,-5,7,15
-39,-25,-25,13,0,-4,-16,-56
127,127,52,-9,-6,10,11,27
-128,-77,-24,31,12,-14,0,10
21,12,10,-20,-7,-2,-13,-15
-94,49,-23,-28,14,6,-2,-7
-29,39,-20,-2,-13,-4,7,6
59,-42,42,3,11,-9,-25,-68
123,127,-14,-4,0,13,26,35
24,77,33,26,-7,-3,0,36
-96,-74,-25,-28,-19,-15,-25,5
-77,-15,-10,-8,24,7,3,-15
31,8,17,-4,-15,-5,-3,-11
-15,-35,-49,-17,-26,-9,-5,-14
0,86,33,32,27,16,19,40
-92,-105,-18,-18,-32,-22,-26,-38
-47,-22,24,39,15,15,4,-3
80,51,23,-31,9,-5,-3,4
-67,-59,-1,20,-2,-3,15,41
104,109,8,-26,3,15,7,-46
44,-29,-27,15,13,-1,-11,8
14,-68,-45,-48,-20,-12,-5,20
27,67,1,16,1,2,3,-8
-37,-55,75,31,12,6,6,17
2,27,12,10,-3,-5,-6,-22
-63,-66,-47,-12,-8,-2,0,-11
123,-53,15,-19,9,0,-4,6
-71,-23,-1,13,-13,-6,-1,17
-89,-13,-13,-16,6,-3,-10,-36
-36,42,-37,4,-15,-4,-7,2
-101,-82,-20,-31,-4,-10,-17,-38
100,84,22,23,-1,-3,0,22
-32,39,-8,-1,21,6,4,7
42,50,67,32,16,17,15,0
89,126,-63,-12,1,-2,4,20
88,95,-14,-27,-15,-1,3,23
-8,-59,20,10,-7,0,7,4
40,-86,-48,-23,-3,-4,-16,-25
26,127,26,23,-4,3,2,14
-114,-112,-64,-20,-8,-7,-4,-3
3,22,34,-9,0,-1,-9,-36
-26,26,-16,-12,-7,-2,-3,4
-115,-120,47,31,1,-8,-8,-10
88,49,-45,-26,1,4,3,10
99,-29,-45,-14,-13,-6,-10,0
44,-45,35,27,7,-5,-4,-13
108,64,3,-22,0,11,23,38
-86,-37,57,30,-5,-8,-20,-36
32,69,-32,-25,-14,-1,13,34
106,101,3,-3,0,-6,0,22
-32,-18,-22,9,11,7,6,-8
26,-75,22,-1,-3,-2,-12,-24
98,72,-1,18,10,10,16,23
-74,-64,21,9,-20,-16,-9,-19
117,127,-20,-25,-4,5,12,27
-85,-109,8,18,20,-3,-9,-40
94,97,5,-10,-10,-7,-12,19
-72,-69,2,-1,-9,-2,-4,-25
72,89,4,-7,9,5,8,17
-110,-95,-73,-40,-19,-14,-18,-52
123,127,39,33,11,8,24,48
-67,-120,22,-2,-6,-15,-38,-70
68,64,5,2,10,2,-1,-8
78,48,-17,9,3,10,23,53
36,-30,10,9,-4,-6,-9,-16
-57,-63,19,5,-12,-4,-9,-26
85,-74,-45,-32,-15,-3,-5,3
127,127,3,-27,2,4,4,6
-4,-57,-3,4,1,-7,-2,4
127,127,-29,-14,4,6,17,23
-9,-85,-2,20,1,-9,-35,-47
107,55,-3,4,-10,-3,12,30
-128,-119,-3,-19,2,-2,-11,-38
127,105,8,-8,4,8,15,35
-99,81,46,20,4,7,19,14
80,-54,22,34,10,1,-2,3
-69,-126,-36,-15,-2,-12,-26,-44
110,96,5,19,-3,9,22,41
-98,-62,-35,-39,1,-10,-21,-42
58,119,39,18,7,1,6,29
-87,7,22,1,-19,-1,4,-1
19,52,28,13,12,6,-1,-5
47,-75,-53,-24,-12,-6,5,-17
-79,-29,4,34,11,1,-5,10
-65,-37,-58,-16,-4,-6,-8,2
-122,-106,6,-13,-6,-8,-15,-54
37,56,34,12,-19,-6,1,19
61,16,-35,-23,2,-1,-7,-12
-46,-7,14,-14,-12,-2,2,2
17,-16,44,33,20,7,7,9
-12,68,-56,-9,2,1,-1,-6
37,93,6,-21,-11,1,4,11
18,31,-58,-7,-9,-8,10,5
70,102,-26,-19,0,6,19,61
-123,-59,21,43,9,-6,-24,-65
-91,-48,31,-35,-14,-7,-10,-29
100,127,50,20,7,9,17,28
66,63,-72,-23,-2,-3,-6,1
19,-20,41,37,2,-1,12,46
-13,49,-13,-4,-6,-5,-13,-37
-72,-87,56,23,4,0,-6,-17
-124,-122,-45,-34,2,1,-7,-10
100,127,14,-13,0,7,2,22
-128,-128,-40,-4,2,-12,-25,-69
-27,-30,26,10,-5,-6,-2,4
127,127,14,18,-11,-2,6,17
-96,-122,-31,-47,-2,0,-4,-10
-38,-43,-5,-10,-7,-5,-4,-20
89,127,39,15,9,10,8,40
-128,-128,-25,0,-11,-18,-30,-78
85,-72,-40,-33,-2,-3,-5,0
95,103,-9,16,-5,-1,2,23
66,62,32,4,17,3,5,25
84,-15,-51,-16,-7,5,-9,-34
-53,-29,-10,8,-6,-5,-9,-44
102,44,33,7,12,10,11,45
107,28,23,5,-1,-2,13,20
110,127,41,10,3,-2,6,22
-23,3,-15,-5,-21,-8,-15,-25
71,22,-49,20,17,6,8,39
10,61,38,-9,-10,-3,-8,-42
77,-38,7,2,2,3,7,5
95,41,33,-16,-3,3,8,29
15,123,-21,27,2,2,16,17
-3,-26,-45,-23,-14,-5,-24,-32
-76,79,62,40,37,20,33,53
-3,-79,29,11,-11,-10,-9,0
-77,-4,1,-43,-24,-2,0,5
55,77,-49,-1,5,5,10,-8
-35,-91,18,10,-15,-12,-14,-14
37,75,70,38,26,4,14,44
-66,-65,-86,-36,-10,-3,-15,-57
-3,-41,-25,-3,-1,-2,-4,-2
50,121,45,-8,-3,8,15,45
-42,-28,23,31,-4,-5,-8,-33
-78,-102,-11,-31,-5,-9,-16,-12
75,79,-56,-25,-10,-3,-2,18
-121,-128,9,17,-11,-24,-38,-68
36,89,26,-13,18,13,12,16
103,127,24,15,0,7,26,53
78,-2,26,14,-2,-1,-9,1
-68,-44,-31,-12,5,-13,-20,-31
96,68,-16,-5,-16,0,12,21
31,5,32,-2,3,-7,-14,-23
10,76,37,26,3,5,15,33
-49,70,-18,-36,-9,9,10,17
-73,23,23,4,15,5,-1,-22
10,-40,-5,27,4,-3,-3,9
-83,-77,12,2,1,-1,-6,-23
127,88,11,24,6,8,12,33
98,29,18,2,2,-1,-2,-16
-9,-47,37,21,1,-1,-6,11
31,-49,-52,-32,-2,-5,12,0
-30,4,-12,-21,-17,-4,-4,-1
52,12,-49,8,5,5,13,23
-2,55,37,7,5,2,2,5
24,-16,10,18,0,-10,-12,-13
22,-41,42,-2,1,8,7,6
-101,-71,-42,-6,-1,-5,-8,-24
59,46,-17,-13,-3,-2,4,12
-128,-69,-2,-1,-1,-6,-11,-25
9,-19,-8,-14,-3,-8,-7,-4
0,9,-5,14,-8,4,-1,-4
10,8,21,3,4,2,7,7
62,52,7,4,19,12,8,19
-11,-43,-30,5,5,-2,-2,-6
22,13,-21,-16,-20,-10,-6,-3
-5,-99,-24,-15,-8,-10,-11,-21
19,50,-16,-6,-8,0,3,9
-49,-95,6,3,-7,-12,-18,-23
-58,-55,42,-11,-5,-9,-18,-17
-32,61,-49,-3,8,18,26,5
-20,-40,9,3,-4,-8,-2,-8
73,96,16,18,1,3,6,18
43,111,12,-10,0,0,6,20
49,-33,30,23,5,-1,-3,-12
-28,-65,-27,-10,-6,-1,-14,-11
7,43,-73,-18,2,2,6,-2
-34,15,-20,1,1,2,2,-18
-11,11,58,-12,-8,-9,-10,-4
15,48,-9,4,9,-3,2,0
35,13,22,-8,-7,-4,-14,-3
-8,92,-33,-13,-12,1,6,21
-110,-87,-7,4,-6,-10,-19,-49
60,57,42,12,9,7,8,13
-17,20,-11,-19,-4,-8,-6,1
26,-5,5,3,3,1,-2,-7
-62,-45,-77,-18,-10,0,5,7
46,110,-3,2,1,1,4,10
125,56,-6,6,9,5,11,39
-56,-103,-11,-2,1,-4,-17,-38
-22,18,11,17,3,-10,-17,-21
45,44,-11,-10,-7,3,8,4
26,-17,15,2,-3,2,2,4
32,74,-20,-6,0,-2,2,13
127,91,-10,-2,-6,10,23,33
-13,-39,-9,0,19,3,-2,10
-20,39,23,14,3,-2,-2,-13
-9,-102,-67,-25,-6,-7,-13,-13
24,49,16,-2,-4,2,3,2
67,49,-16,-13,-14,-1,1,14
-93,-74,-15,-9,-2,-3,-3,-29
127,48,33,25,13,5,12,29
10,-19,15,0,4,4,2,-4
-25,-11,-8,2,2,-4,-14,-13
35,14,23,3,2,-1,9,-8
28,43,1,-13,-16,-4,-6,1
40,41,14,-2,-1,3,15,16
-82,-67,18,5,3,1,-13,-6
-41,37,22,5,0,-2,-12,-17
-35,15,0,-2,-3,-6,4,2
-5,9,17,8,3,5,3,3
-21,-15,-4,-4,-5,-3,-5,-11
37,48,-16,-6,-4,2,5,17
