-2,-2,-6,-1,-2,-2,1,0
-1,0,-2,0,-2,2,1,-1
-1,0,1,-3,-3,-1,-1,-2
-1,-1,-1,-1,1,0,-1,0
0,-1,-3,-3,0,0,-2,0
-1,2,3,-4,-5,-5,-3,-2
-4,-4,-6,-2,-1,-3,1,-1
-1,1,1,1,2,1,-1,-1
0,-2,1,0,0,3,1,0
0,0,-1,-1,-1,-1,-3,1
0,-2,1,-1,-3,0,0,-1
-1,-1,0,-3,-4,-3,-4,-1
-1,0,-3,-1,-2,-6,-2,-1
-1,-3,-4,1,1,0,-1,-3
-2,0,1,-2,-3,1,0,-1
-1,-5,-1,-2,1,0,-1,-1
-1,2,1,3,0,0,1,0
-1,-2,-3,-3,-3,-5,-1,-1
0,1,0,2,1,1,0,-1
-1,-2,0,-1,-1,-1,1,-2
0,0,3,-4,-5,-3,-3,-1
-1,-2,-4,-4,-3,-3,-1,-1
-1,-1,3,-1,0,-3,-2,0
-1,0,-1,1,2,3,1,-1
0,0,-2,0,1,4,0,-1
0,-2,-1,1,0,0,0,-1
-2,-2,0,-2,-3,-3,-3,-3
-1,1,-1,-1,-4,-5,-2,-1
-2,-1,-1,0,-3,-1,-2,-2
0,0,-2,-1,-2,-1,-1,0
0,3,2,-1,1,2,-2,-2
-2,0,0,1,2,-1,-3,-1
-3,-1,0,-2,0,0,-1,-2
-1,1,-1,2,0,-2,1,-1
-1,-3,-1,1,0,0,-2,0
0,0,0,-4,-4,1,0,0
0,2,-2,-3,-3,-1,-1,0
-1,-3,2,0,2,-1,-1,-2
-2,-2,-3,-3,-1,-3,0,0
-2,-1,1,-1,0,-2,-2,-2
-2,-2,-4,0,3,0,-1,-1
-2,1,1,-2,-2,-1,-1,0
-1,-4,-2,-1,0,-3,1,-1
0,1,1,-1,-2,-3,1,-1
-2,1,1,1,2,1,1,1
-2,-6,-2,0,2,6,-2,0
-1,-1,-5,-1,-2,-2,0,-2
-1,-7,-3,-2,-3,-4,-1,-3
0,6,7,-1,-3,-2,-1,-2
-1,-1,-3,-3,-2,-2,-2,-1
-2,-2,-1,0,-1,1,0,0
0,-1,-1,0,0,0,-2,-3
-2,-8,-8,-1,-3,0,-2,-2
-2,1,-2,-1,-2,-2,-3,-4
1,-1,-1,0,1,-2,-2,0
-3,2,1,0,1,3,3,0
-2,-1,1,-4,2,2,1,-1
-1,0,-2,-4,-3,-1,0,-2
-2,1,0,-1,-4,-4,-1,-1
-2,2,3,-1,-1,-3,-1,0
4,-3,-6,2,0,0,3,0
-4,-1,1,-7,-5,-3,-1,-3
2,0,-3,1,-1,-1,0,1
2,-1,-8,2,2,0,-8,-1
-30,-5,6,1,1,0,9,-3
14,27,26,10,4,4,-1,3
15,-8,-9,-17,-11,-4,-5,-11
-2,3,-41,-9,-3,0,-8,-13
-6,2,9,3,1,-2,-1,-3
0,-28,7,3,5,2,2,9
47,81,8,6,7,5,-4,-14
-39,-67,15,2,-4,0,-2,11
-58,-6,-10,-7,-7,-7,0,-13
64,-18,-9,-5,-5,-8,-2,-39
45,23,13,4,-1,5,-4,35
-74,-71,-18,-14,-10,-9,0,-35
0,-1,9,10,10,2,-14,-14
-102,-15,-4,1,11,4,-7,22
101,80,-20,0,1,1,-21,31
39,33,0,10,2,2,42,8
28,13,-26,-10,-9,-4,-7,11
-29,44,-1,-22,-17,-9,-8,-24
-21,-45,27,17,3,1,0,-4
-14,58,60,15,5,3,-8,17
-17,-11,-44,-10,-1,-5,-1,-26
25,22,-27,10,10,6,0,9
-25,4,22,-4,-3,1,-1,19
33,23,-14,-9,-11,-9,4,-18
29,-79,21,14,10,8,-5,39
-17,-19,-13,-1,-2,0,25,-16
-35,-62,-6,0,-8,-7,18,-70
4,10,-35,-28,1,1,-16,2
116,74,14,-11,-8,-2,-13,30
-45,13,18,11,-9,-10,15,4
-29,3,-16,20,14,4,-4,5
18,81,-25,-17,-10,-3,1,-8
77,-9,39,0,4,1,23,37
-18,-52,-48,-2,3,5,-10,-24
-67,-89,10,-13,-11,-12,-17,-61
80,48,15,32,18,10,0,31
-95,62,12,5,9,6,-18,-14
92,64,39,13,-2,-1,-14,-25
-42,8,3,-3,-1,4,0,39
-8,-113,1,9,-2,-2,1,28
7,36,19,1,0,1,51,6
12,-59,-32,-8,-2,6,-10,-8
-43,-40,-39,-21,-17,-20,-29,-11
71,28,35,0,-4,-10,-1,-11
-53,-39,-35,-2,-14,-11,-55,-54
-5,61,25,11,15,11,50,79
97,1,-27,-28,-17,-8,27,8
-115,-84,-3,4,0,2,-17,-43
12,4,-15,8,7,-2,-6,31
15,65,-4,-11,1,5,15,25
16,-24,-2,-5,-1,-2,-16,6
42,114,-2,-9,-3,-5,-9,21
-21,-35,-13,-22,-16,-4,-5,-30
-26,50,7,28,16,3,15,24
-41,-35,-1,-14,0,3,-1,-10
52,-34,-4,14,-2,-8,-16,24
26,-24,-10,-3,-3,4,8,-23
-15,50,12,-22,-19,-14,-21,-20
27,-8,10,17,5,3,6,0
-30,76,-3,-15,13,12,20,56
-60,-9,-25,-11,-13,-10,-3,-47
11,-4,39,8,-8,-8,-21,-12
-34,17,-12,-5,22,14,10,-2
57,65,38,44,22,20,30,14
-82,-69,-45,-47,-40,-36,-46,-13
3,-28,8,3,-16,-9,-26,-49
-8,96,-1,-4,-4,-15,-8,5
56,-68,-31,-12,-2,4,9,15
51,127,35,32,20,21,25,62
-90,-128,-35,-28,-20,-16,-15,-42
-2,25,-2,1,-1,-5,-15,-11
40,92,16,5,-7,0,16,17
60,-84,-13,18,36,15,8,10
86,68,32,20,15,14,9,47
93,80,19,18,2,-1,8,17
-33,70,-17,-21,-15,0,-2,-7
2,-10,18,20,4,3,9,46
31,19,-18,-17,12,5,-9,-25
-91,-85,20,11,-4,7,37,10
81,69,24,0,4,-8,-15,-35
-39,-63,-28,-40,-40,-23,-15,-37
-2,61,1,16,19,7,1,44
43,98,-1,13,-2,0,2,-31
-120,-128,-30,-9,3,-4,-20,-40
-11,44,40,-31,-35,-13,3,-30
81,89,-55,-1,16,-2,-3,26
95,48,-30,1,7,10,5,2
-113,-83,-10,36,9,-3,-10,-50
127,127,50,2,14,4,6,38
-61,-128,-24,-31,-45,-27,-7,3
-31,126,18,-17,-7,-9,-11,-35
-49,-30,-13,-12,1,-1,1,23
64,74,14,39,20,14,5,2
-104,-75,-25,-40,-27,-20,-23,-48
28,-25,20,24,20,15,9,45
-2,-19,-13,-33,-20,-4,4,-24
-94,-54,-8,19,0,-7,-23,-68
118,51,39,-18,0,18,65,89
-105,-128,-9,15,7,1,-11,14
-21,-69,-37,-41,-33,-20,-30,-36
2,71,6,20,11,6,1,7
9,44,28,15,17,10,5,1
20,106,17,-13,-15,-3,1,11
-55,-71,-44,-33,-15,-7,4,34
-5,-34,12,36,33,29,22,-45
25,118,-12,-4,-12,-10,-7,37
25,-100,-23,-7,-6,-2,-8,-14
-10,8,47,-22,-9,-9,-7,-24
22,77,-54,22,32,17,15,90
18,-116,-16,11,-11,-3,-2,29
68,98,-5,-15,-7,-6,11,54
76,127,38,16,-1,7,7,-76
60,89,22,-6,8,11,13,34
-87,-64,-7,-26,-20,-24,-59,-16
-34,-40,-35,-11,1,5,29,-40
66,102,-29,-1,1,-5,0,28
-48,-78,19,7,-12,-8,1,-35
39,125,-3,4,22,11,-22,17
-62,1,5,19,5,-4,-6,-103
10,35,53,7,1,-2,-10,99
-32,42,-52,-17,-16,-9,14,-34
-21,-104,-30,-32,-26,-14,-4,-38
-71,-68,-6,24,31,12,-18,52
-5,5,-6,4,8,-5,-26,-26
11,48,26,-7,-16,-10,7,-33
20,99,23,28,10,9,3,-25
1,27,0,-36,-28,-18,-26,-68
-18,-70,8,29,4,15,14,29
-11,-10,7,-33,-7,-22,-31,-18
32,77,4,17,9,12,35,-47
118,71,25,2,2,4,4,15
22,51,13,11,10,5,-25,-44
-36,6,2,1,-7,-8,22,43
20,-36,-16,-24,-5,11,22,85
34,45,8,33,22,-5,-30,8
-4,-57,-17,-12,-14,-10,-2,-44
68,75,-4,-2,0,6,-2,43
-70,92,13,12,-4,-10,-23,-43
62,105,27,-9,-14,3,30,64
-67,-3,-27,26,50,33,47,-35
68,89,-9,3,-10,-9,-20,68
-17,-101,14,3,-24,-16,-19,22
24,60,-18,-31,-1,7,20,13
-89,7,22,9,-12,-12,-22,-36
3,47,-40,5,25,13,10,-11
103,51,32,8,-4,-2,-15,-24
-57,-126,-11,-3,-13,-13,-12,19
33,67,-5,7,15,17,30,85
-95,-71,9,-26,-21,-9,-32,-63
36,103,-1,16,19,4,21,15
-112,-86,-27,-18,-19,-14,-27,-34
68,101,8,6,0,9,12,26
24,-75,-6,7,-4,-6,-16,47
16,65,20,13,15,12,12,-21
64,126,20,-15,-19,-21,14,11
0,-59,-26,10,-6,-5,0,95
-52,-120,27,-6,-18,-8,-18,-49
-49,54,39,-5,-8,-11,-18,-79
0,-62,-73,-16,11,14,8,-10
110,98,52,-4,-7,-8,-20,-3
-15,-73,4,-24,0,0,24,76
-108,-111,-43,9,3,-2,8,-27
-105,-45,5,1,-8,-1,6,19
29,-51,14,6,-3,2,16,-34
127,127,6,-8,4,10,11,35
-78,-106,-51,-23,-3,-13,-28,50
41,112,16,26,19,25,22,10
3,-13,-17,-23,-36,-36,-64,-33
48,119,11,-4,-6,2,37,-71
-33,-63,-31,-18,-2,1,-14,0
-1,36,40,16,2,9,17,24
39,-86,-81,-17,-3,-4,-11,73
-77,76,11,28,31,9,2,-58
43,-69,-6,-33,-41,-16,-11,-35
-2,85,27,10,1,-3,-2,53
-31,-9,20,10,8,2,-36,-6
34,58,16,0,-19,-4,66,56
-39,-24,-69,-12,29,7,-7,-13
81,-36,7,16,-2,1,10,6
-25,44,-1,-28,-15,-11,5,-19
58,32,19,4,-1,7,-7,14
-55,11,18,32,34,17,12,5
63,53,12,23,10,-2,-30,20
-79,47,20,-22,-8,0,15,-42
-40,-128,-56,18,-2,-12,-26,0
72,127,50,11,3,6,1,-35
-22,-128,-63,-27,13,4,-18,26
-62,5,-43,-17,-13,-4,25,19
-1,60,39,2,5,-3,-28,-62
85,-39,17,13,-10,-4,-1,65
-118,10,27,-6,2,2,-6,-24
29,62,-4,14,8,5,22,-106
37,46,-31,-23,0,5,-24,-10
-51,-83,8,42,31,14,18,-19
-34,3,31,-23,-46,-27,-14,-124
103,76,6,8,27,10,-8,57
-93,-68,-13,5,-12,-5,15,18
3,17,6,-19,-3,4,12,-4
28,3,-15,-10,-15,-13,-2,38
-37,46,31,1,2,5,11,-20
62,-8,-1,15,14,1,-9,43
7,-50,-26,-15,-1,13,14,11
30,76,6,-18,-18,-13,-20,25
26,77,0,17,15,-3,9,97
-22,-76,10,-36,-32,-16,-20,-87
75,125,65,60,7,7,14,38
-63,-123,-64,-49,-17,-8,-12,-28
27,60,-16,-17,-7,-1,10,45
37,46,8,6,5,-8,-19,56
9,62,4,6,13,5,18,-38
36,-32,38,14,-8,-9,-21,24
-49,36,15,14,10,7,24,-31
-74,0,-7,-17,-11,-4,20,23
-27,33,-67,-56,-31,-20,-49,-67
122,73,4,91,74,33,26,54
11,-89,11,-22,-20,-8,-1,23
28,23,4,34,15,18,16,-31
35,126,47,-22,-24,-11,1,46
-4,29,-18,-22,3,-9,-22,-62
-18,-58,-54,-4,3,-4,14,-7
13,6,6,-7,-3,-2,-5,-26
13,-40,2,8,9,5,-2,12
-21,50,-4,-9,-4,-6,-81,2
-52,-100,40,28,-9,-2,91,-17
-17,-27,-39,-48,-15,-13,-22,-8
-2,-20,-24,11,-16,-14,-3,-9
-23,0,-9,-12,14,8,-25,19
4,1,11,-9,-9,-10,-36,-10
-5,-13,-5,39,27,12,3,-9
-3,-19,40,3,-6,-6,-18,-17
-7,0,-15,-8,-7,-3,10,-20
11,-9,1,-4,-5,-4,-20,-15
-40,-31,-21,-15,-2,-3,14,-23
52,12,-13,2,8,6,8,87
0,-7,21,11,-2,12,95,16
11,1,-5,-4,2,1,-40,6
-12,2,15,1,-4,-7,-25,0
-17,-11,-27,-15,-7,-10,-14,8
-12,-12,10,-4,-11,-12,11,-35
7,5,-10,-2,5,9,5,-17
0,-4,2,1,4,2,-29,14
-1,-9,6,4,-1,-4,14,-26
-21,-2,8,-3,-6,-9,8,-15
24,9,-18,7,10,5,-35,-17
-9,-5,-5,-6,-7,1,26,19
-11,-6,-4,-11,-4,2,42,-8
1,-2,0,5,-1,5,2,11
-5,7,29,5,-3,-5,-28,-25
3,-20,-10,-9,-7,-12,-3,3
-8,-8,-13,-3,1,4,-12,-11
-11,7,6,1,0,2,-7,-8
9,-7,-21,-4,1,-5,4,-3
6,18,40,11,3,1,2,4
-4,-19,-7,-1,2,-3,-5,-1
-2,-7,10,-1,2,5,-4,-3
5,-1,-9,0,-4,1,2,-2
-2,1,-10,-5,-2,-2,-4,1
-5,-1,19,3,2,0,-16,-4
-2,-3,-16,-7,-8,-3,27,-5
4,-6,7,-4,-6,-5,-6,-3
-6,-7,-34,-7,-4,-2,-5,-6
3,1,4,2,4,-1,-7,-7
6,-2,-13,-1,1,2,-1,-2
-11,5,21,2,-2,-4,-5,1
1,1,-11,-2,-2,1,-4,3
-4,2,30,-1,0,4,8,-3
-7,-7,-32,-4,-5,-3,-4,-6
5,-9,-13,0,-1,0,1,0
-4,-1,18,-3,1,-2,-8,-2
-5,2,-6,2,2,1,6,-1
-1,-4,-10,-5,-3,-8,-3,-3
2,-8,13,3,1,4,-5,-6
-4,2,10,0,-1,1,-4,5
-1,-2,-22,-3,0,-1,2,0
-2,-8,-39,-10,-4,-4,-6,2
1,2,5,0,-1,-6,1,0
0,0,8,-1,-2,0,3,1
-1,-2,1,-4,-3,-2,-4,1
-2,3,5,4,1,2,6,-2
-3,-1,7,-5,-2,-4,-5,-2
0,-2,-16,-3,2,2,3,-3
0,1,2,3,-1,-1,-2,0
-2,1,21,4,2,-3,-3,-2
2,1,-10,-1,1,2,1,-1
-2,-2,6,-1,-3,-6,-5,-3
-2,0,13,3,2,1,0,-3
-3,-6,-26,-4,-1,-2,-3,-6
-4,0,10,-1,0,-1,-1,1
4,2,-1,-3,-2,-2,6,1
-3,-4,-19,-7,-4,-5,2,0
0,2,29,7,-3,2,-2,0
-1,0,-6,-2,-2,-2,-4,-2
-2,-6,-22,-1,2,2,-4,-2
0,0,3,3,9,7,2,0
-1,1,16,0,0,-1,-1,-7
-1,-1,3,-4,-6,-5,-1,-3
-2,1,6,2,-5,-4,-1,-2
0,-1,-9,-2,-4,-4,-4,1
1,1,11,-1,4,-2,1,0
2,-2,4,2,-2,-1,-3,0
1,-2,-22,-5,-4,-4,-1,-3
-3,1,14,-1,1,0,-2,0
-1,1,-17,-1,2,3,1,0
-5,0,22,-2,-1,-4,-2,-2
7,-6,-22,-1,-3,2,-3,0
0,-1,-2,-10,-2,1,-1,-1
1,0,3,4,2,2,3,2
-2,2,11,2,-1,-1,-2,-2
-3,1,-3,3,0,-1,1,1
-1,0,-10,-1,-6,-7,-3,-2
0,-2,10,-6,-2,-1,0,0
-1,-4,-34,0,3,4,2,2
-4,0,25,0,0,-4,-1,-3
1,-1,-12,-1,-1,0,2,0
-2,1,16,-1,-1,-1,-2,1
-1,-3,-20,-5,-2,0,-4,-1
-2,0,1,1,-2,-1,-4,0
-4,-5,0,-1,-4,-2,1,-4
0,-5,4,-2,-4,-5,-3,2
1,2,1,3,1,-1,1,-2
0,0,5,-1,3,0,1,0
0,2,9,1,2,-2,-6,-8
-3,0,-1,-2,-3,0,2,-2
1,-4,-28,-7,-4,-1,-2,1
-2,-1,17,1,-1,1,2,-2
0,-1,-5,0,-3,-4,-4,0
-1,1,5,2,0,-5,-2,-1
0,3,14,0,1,2,0,-1
0,-3,-22,-6,-4,-3,-3,-1
1,0,2,5,5,6,4,2
-3,-3,-17,-3,-1,1,-2,-3
-2,0,4,0,-1,-3,-1,2
-2,-3,3,-4,-3,-5,-1,-1
-1,-2,-3,-2,-3,-4,-3,-1
-1,0,-1,1,-1,-2,-2,0
0,1,3,2,1,-1,-1,-1
-1,-4,-12,-2,-1,4,0,-1
-3,-1,11,-2,-1,-2,-1,-1
-2,-1,0,1,-1,2,-1,3
0,-1,1,-2,-3,-4,-3,-1
-2,-1,-4,-1,0,-1,0,-2
-2,1,-2,1,1,-1,-1,0
1,3,8,-1,-1,0,-1,-2
-3,-7,-25,-5,-3,-3,1,-2
