-1,-2,0,-3,-3,-1,-1,-2
1,0,-7,3,0,-5,-1,-1
0,1,0,-3,0,6,0,-1
2,0,4,3,0,-5,-3,-1
0,-1,-2,-1,-2,-2,0,0
-1,1,0,-2,-1,2,0,-1
-4,-2,-4,0,-4,-6,-4,-2
1,2,6,-2,-1,-1,-1,-1
0,1,-2,-2,-3,-1,-2,-2
-3,-5,-1,-1,-2,-2,-1,-2
1,4,2,-3,-5,0,1,0
-2,-1,1,-2,1,1,0,-3
-1,0,-1,0,0,-1,-2,0
0,-3,-7,-1,-1,1,-1,0
-2,-2,0,-3,-1,-3,0,-3
0,2,-1,-1,-3,-1,-1,0
-4,-5,-2,0,0,-2,-3,-3
2,0,3,1,-1,0,0,1
-3,-4,-2,1,4,0,1,-1
-1,-2,-6,1,-1,-1,-1,-1
-1,-3,2,-1,-4,-2,0,-1
-1,2,0,-2,-1,3,-1,-1
3,-2,-5,1,-4,-7,-1,0
-1,-3,5,1,4,4,1,-2
-1,-3,-6,0,-2,-7,-2,0
-1,-2,2,1,1,4,0,-1
0,3,3,-3,-2,-1,-3,-1
-1,-2,-2,-1,-1,-3,-2,-1
0,1,-1,-1,-1,-1,-1,0
-3,-6,-1,-2,-2,-1,0,-1
-1,-1,-3,-3,0,-3,-3,0
1,1,4,1,-3,0,1,0
0,-1,0,-2,1,-1,-3,-1
0,-1,-1,1,0,-1,-2,-1
0,0,-1,-2,-2,-1,-1,0
-1,-1,-3,-4,-5,0,-2,-2
0,-1,2,2,0,-1,0,0
-2,-2,-7,-3,-1,1,0,-2
-1,-4,-3,2,0,-1,-1,-1
-3,0,2,-3,-3,-6,-2,-2
-3,0,-3,-4,-2,2,0,1
-1,-2,1,2,-1,-1,-2,-2
1,2,-1,1,3,2,-1,-2
-3,-4,2,-2,-4,-5,-4,-3
-1,2,-5,-5,-2,-1,-3,-2
14,4,4,3,1,-1,0,1
-17,-2,-8,-1,-2,0,0,-1
6,5,3,-1,0,0,3,2
2,-12,-3,4,4,3,0,-2
0,-3,-2,-12,-5,-1,-2,1
6,-2,5,8,5,3,0,1
-6,3,5,1,0,-1,1,-1
-2,-2,-12,-4,-2,-1,-1,-1
-1,1,7,0,-1,-3,-5,-4
-1,-3,-1,-4,-1,-2,-5,-6
-6,3,-1,2,-2,1,1,0
13,4,8,-5,-6,-10,-1,3
-8,-6,-5,0,3,12,8,4
8,9,-5,-4,-4,-1,-2,1
-18,-12,-7,-2,-1,-3,-6,-6
-1,4,1,1,0,-2,-2,-4
-1,3,-3,-2,-5,-7,-4,-3
-2,-1,2,-2,-1,-3,2,3
6,-4,-6,-2,1,0,-1,0
-7,-11,-3,2,0,2,-3,-6
-6,3,1,-5,-5,-5,-13,-9
-6,-8,-6,-5,-8,-4,10,1
1,-4,2,4,2,3,7,6
-9,4,6,1,2,3,4,5
28,8,0,2,-2,-4,-3,-1
-8,-2,5,1,0,-5,-12,-6
-1,-26,-19,-18,-8,-8,-15,-13
-13,-7,-3,-16,-4,1,3,4
-26,-5,7,26,9,19,19,5
3,5,-1,-2,0,-6,16,11
25,6,13,14,2,-4,7,10
7,-7,-11,5,0,-7,-21,-12
-13,-11,-11,-29,-14,-5,-27,-12
15,5,-2,-1,0,9,27,10
-47,9,11,13,6,0,-8,-3
89,22,-8,-7,-1,-5,3,13
-74,-31,-10,-6,-3,0,7,0
-7,-6,20,2,-6,1,-16,-19
13,12,-8,-9,1,2,-52,-19
-24,-10,-2,3,-7,-19,39,-1
44,8,3,10,6,11,9,31
-49,-24,-7,-4,4,10,26,1
14,0,-2,-2,-5,-7,-70,-19
-28,-3,-8,-11,-5,-7,29,-12
56,19,6,-14,-2,-12,-36,7
1,12,-1,21,7,3,64,13
6,5,18,25,20,31,-2,14
-50,-18,5,-1,-7,-16,-37,-16
-14,1,-18,17,9,8,46,12
57,13,-3,-26,-12,-13,-52,-9
28,19,-19,-23,-9,-1,47,3
58,21,21,19,5,-20,-32,14
-81,-49,-1,-5,0,3,28,-25
-17,-6,-1,6,7,13,-26,12
18,9,-8,-15,-6,-10,55,6
57,28,-1,-36,-7,6,-21,0
-17,4,18,36,15,19,31,17
-5,-5,0,7,-2,-27,-78,-28
28,9,-9,-1,0,28,62,34
-19,-32,-20,-16,-22,-30,2,-18
7,0,-27,-26,-6,-22,-7,-7
-44,-8,-9,-19,-11,-6,-35,-35
36,15,6,-1,-7,-18,-59,1
-77,-16,8,18,20,51,32,1
66,30,3,2,0,-5,-10,15
-29,-8,-10,-24,-20,-29,-14,-13
-8,-34,-11,-7,-2,1,29,-12
-13,12,-1,30,3,4,4,-18
-2,8,57,13,3,-6,-11,6
-21,-39,-59,4,8,27,-2,-9
26,3,-17,-28,-12,-22,-20,0
-3,2,18,2,-5,-7,-8,22
-65,-31,-10,-9,4,22,14,-46
42,1,16,2,-8,-8,20,6
-5,13,18,17,11,-7,64,18
78,36,3,6,7,12,-13,-3
-39,-29,6,-11,-16,-33,-64,-14
72,19,-17,-5,-6,-7,-44,5
-94,-32,-7,5,-4,10,9,-56
85,21,13,10,15,35,29,42
121,12,-17,-29,-34,-52,-2,11
27,42,24,17,10,10,-5,-16
7,-35,-7,-9,6,43,48,19
-5,-8,-18,-18,-6,-9,5,1
11,-35,-10,-5,-11,2,-42,-43
39,13,-9,-20,2,-8,35,50
97,70,40,46,-2,-50,8,38
21,23,39,86,29,13,-52,-29
-32,19,1,11,17,22,18,46
8,-39,22,28,-6,-10,51,4
5,2,-27,-41,-21,-18,-34,-28
-97,-103,-50,-57,-21,-14,-21,-52
-15,7,-14,0,1,-12,-62,-34
78,48,44,11,13,27,56,51
8,-33,-18,1,1,5,-16,10
61,49,34,-6,-2,19,77,27
104,22,-35,-10,8,-10,-27,30
-128,-60,5,-2,-2,3,41,-54
72,14,5,-8,-6,-22,-61,8
5,-21,-6,-11,-7,3,11,12
84,111,41,26,19,23,19,34
108,17,-26,-46,-18,-8,19,25
80,80,22,29,15,2,-6,34
42,21,10,5,-7,-19,-75,-26
45,26,8,24,9,40,127,42
-99,-75,-22,-14,-14,-22,-87,-42
-42,26,17,-4,3,1,-32,-46
82,45,-29,-39,-15,3,57,58
-30,-13,24,22,7,-6,-68,-46
-27,21,4,75,31,18,25,38
-74,-48,-32,-25,-16,-6,-35,-33
-8,17,15,13,4,-7,15,-2
-49,-56,-26,-23,-14,-20,-30,-55
86,45,23,-9,8,24,46,8
-16,-34,0,13,10,-6,-52,2
42,31,-3,12,4,-27,-92,-34
91,47,19,-9,8,85,98,101
6,-27,-33,-26,-11,-18,-62,-53
40,30,-6,17,3,14,-31,-25
-71,-71,-8,-17,-10,-37,-20,-23
28,-2,7,-1,-7,-32,-43,-4
-71,-6,-23,-40,-12,11,-16,-20
-61,-3,43,78,28,42,42,16
88,-36,-49,-89,-22,1,-7,44
-47,-45,7,70,16,-3,51,9
-102,-64,-3,0,-1,2,12,-39
34,-26,-42,-20,-3,-41,-43,-25
-23,7,-18,-11,-2,14,-25,-15
33,37,-24,-21,-11,-25,-73,-29
52,-28,19,-4,-9,-39,0,18
-48,-23,-11,-18,-4,2,3,-1
-128,-6,19,35,19,35,120,-7
-9,-51,-30,-41,-25,-39,-66,-17
-25,-9,4,-14,-9,4,-6,1
88,-33,-12,-2,2,-11,-43,27
103,42,4,9,-2,14,90,26
-22,-6,-7,-40,-10,-9,-32,-50
37,36,12,25,-7,-24,69,31
47,4,7,-24,-10,15,116,34
-3,-8,14,44,14,-8,-67,-22
-5,-13,-2,-1,-5,-14,8,-7
-54,-6,-1,17,4,0,-107,-29
23,-5,2,-47,-27,3,6,5
-51,-32,-41,-15,-8,-12,52,-20
-7,22,10,17,14,42,48,28
127,104,21,-9,4,1,-46,15
-73,-65,3,22,4,-15,-41,-37
3,-21,6,6,10,26,-6,7
47,17,8,-7,-1,-23,-93,-9
-36,-6,-16,-10,8,54,127,18
123,102,17,-2,-2,-7,-24,38
-87,-81,-9,-8,-6,-6,-74,-31
82,9,-3,7,3,40,105,25
63,39,23,27,13,-36,-111,-31
68,-33,-30,-28,-12,9,109,60
-3,22,-6,-34,-9,-42,-128,-18
-22,-3,7,37,7,13,51,-9
92,72,14,-49,-16,-10,-38,18
-128,-37,-13,16,-2,0,-7,-56
-69,-37,-33,-32,-5,-16,-27,-8
-73,-63,-11,-4,-5,-2,36,-41
61,32,-2,0,-11,-31,-21,53
-18,34,18,-14,-2,6,-9,-13
29,30,9,13,9,30,63,38
-54,-35,-15,-26,-21,-53,-128,-99
46,-33,-6,12,11,15,13,47
1,-1,1,10,8,41,102,34
40,20,27,23,5,-10,-74,-22
-54,-15,-19,-24,-14,-18,-66,-29
-40,-60,-12,-3,2,20,26,-3
63,88,16,-8,-2,-27,-113,-29
49,37,27,24,0,9,71,-6
-64,-29,-39,-28,-18,-22,-8,-51
27,17,-15,-7,3,20,-17,-8
-50,-4,26,36,22,24,44,21
60,98,26,-7,-8,21,29,24
127,23,6,15,16,-5,-2,55
2,0,16,29,3,-2,-16,-44
51,-14,-21,-23,-9,-2,-8,13
-18,-2,13,6,4,-1,-15,5
-96,2,20,-6,5,29,54,20
7,-4,-34,3,1,0,33,10
64,55,24,-3,5,-8,-39,-10
-12,-3,12,10,-1,-16,-31,4
48,42,1,-23,3,10,54,35
40,63,42,86,31,31,88,-6
38,-2,-26,-25,-19,-39,-90,-29
122,75,18,4,-1,-32,-16,-2
115,-96,-12,27,19,49,6,91
-62,1,-7,-6,-9,6,33,-20
-65,-51,-10,-19,-13,13,44,36
-70,-40,-3,44,9,-27,-110,-44
66,82,21,0,3,1,32,26
-128,-67,-15,-24,-14,-49,-127,-94
6,-55,-9,-3,11,29,100,37
18,-103,-57,-77,-29,19,127,45
-48,11,15,-4,-10,-20,-43,-29
-7,-9,-13,14,3,-16,-85,-8
39,97,35,5,1,-8,-14,-26
71,-3,-7,-6,2,8,-8,14
-104,-25,-4,9,3,-11,-49,-51
25,-6,9,-32,-9,25,109,80
-59,-37,-30,-13,-5,-21,-128,-60
74,45,20,21,11,45,127,90
-116,-12,-14,-21,-17,-9,1,-13
115,106,41,12,2,-58,-118,-33
-114,-100,-65,-28,1,53,108,4
14,31,-12,6,-2,-2,-37,8
85,95,11,-4,-7,-24,-55,-12
-16,-22,-18,2,4,18,-10,16
-12,-18,5,-18,-13,-26,-47,-6
-72,-38,-2,17,-1,-5,-6,-30
96,20,33,12,-2,4,-3,9
41,-43,-69,-82,-23,8,13,-7
60,21,40,92,18,-1,29,12
-112,-97,-30,-13,1,19,-25,-64
47,9,1,-8,-9,-35,-85,-39
89,-7,1,-11,-7,29,127,84
-33,1,4,-5,-4,-26,-36,11
-11,4,-6,-10,-3,-3,-32,-30
-50,-4,-8,14,7,-12,-25,-31
-48,28,16,4,10,36,56,23
-70,-38,-11,-16,-4,-3,28,-19
2,17,8,9,1,-16,-62,19
-113,-106,-57,-38,-15,5,-2,-26
-16,-13,16,12,5,-10,-33,6
6,17,-8,-43,-18,-17,-40,-36
-7,18,0,2,0,-1,-20,-18
125,84,9,11,-4,-28,43,12
-79,-33,11,32,16,46,-27,18
-31,-47,-6,-11,-15,-14,-75,-37
-8,-19,-1,-27,-8,-18,-78,-15
-32,12,-8,8,-2,-10,-30,-42
-53,-77,-5,19,-2,-20,-5,-53
127,100,13,6,10,19,96,106
-45,-5,7,6,1,-21,-41,-49
45,43,23,12,12,28,25,17
-6,-40,-23,-27,-19,-34,12,-21
-62,-54,-7,16,2,19,32,1
22,45,1,-19,-1,-3,-30,-11
1,-72,-13,17,9,2,10,47
50,32,-10,-23,-12,-26,-66,-37
125,105,27,3,-1,-7,-68,-1
17,-34,-30,-43,-15,-13,15,7
-20,56,47,57,36,63,96,25
-121,-75,-77,-38,-34,-59,-97,-69
-50,25,19,7,0,-13,-9,-36
71,55,10,17,13,36,19,54
-11,5,-6,-33,-23,-30,1,-17
71,19,35,35,25,29,51,43
-41,-22,-1,-1,-2,-12,-1,2
-44,-36,-10,-2,-9,-2,-14,-14
45,-13,-11,-20,-13,-10,-25,10
-108,-37,6,4,4,-7,-7,-27
-46,-68,-27,-6,-3,6,-38,-43
127,61,28,29,19,17,63,43
26,-18,-9,-11,-5,0,15,17
8,18,-1,-9,-2,9,6,8
14,26,6,11,4,-14,-67,-28
-54,-16,6,10,0,-5,9,-9
-11,-8,-19,-15,-2,10,15,10
52,41,16,4,0,-3,-31,7
5,-9,1,9,8,6,11,8
-11,12,23,16,0,0,11,0
-8,-5,13,-8,-5,-4,-8,15
12,15,-35,-5,-14,-24,-20,4
-8,-21,-36,-8,7,12,19,-3
-4,1,16,7,14,2,21,3
-11,-13,-20,-2,2,-4,-14,12
20,40,39,15,0,-2,8,-2
27,20,24,9,2,-18,5,11
-18,-4,5,3,5,9,-21,-31
-2,-39,-61,-21,-18,-8,-4,16
-7,31,84,23,22,30,6,-38
41,26,8,-3,4,15,30,42
-14,-43,-79,-17,-12,-19,-18,4
-16,-16,-21,-12,-3,-2,3,-11
17,32,38,1,-1,14,6,12
-4,17,37,30,13,6,-28,-44
15,15,-44,-12,-17,-10,6,27
-10,-19,16,2,6,2,1,-12
0,-2,1,3,-4,-13,-5,3
14,-40,-64,-14,-12,-19,-7,27
-14,23,74,33,11,17,12,-3
20,12,-46,-20,-2,-1,6,20
-6,-33,-24,-3,5,-1,-9,1
-22,1,64,1,-4,-1,0,-18
2,-16,-13,-4,-9,-9,-9,6
0,38,8,-13,-8,-13,-12,-17
10,-11,17,1,15,23,21,32
-15,-1,13,22,2,4,-1,-18
22,-2,11,-25,-13,-14,-3,40
-1,38,74,27,9,7,-2,-19
-8,-34,-54,-31,-13,-6,0,4
3,-6,17,2,-1,-1,1,9
-11,7,-22,9,4,-2,-4,-24
-10,-12,-11,0,1,7,6,6
4,2,3,2,-4,-2,-2,1
4,3,-28,-2,-2,-1,-2,-6
-6,2,24,3,-1,0,0,-12
-10,1,22,4,3,1,-7,-10
1,10,28,-7,-5,-6,-8,-7
1,13,-8,-12,-5,-3,-1,7
-3,-8,-13,-1,2,2,-1,-10
2,3,21,13,4,3,1,4
1,5,-22,3,-1,-2,0,-4
0,1,-2,-1,1,2,5,4
-2,2,0,0,-3,-3,-4,-7
-2,-3,3,3,0,1,-2,0
1,11,5,3,0,-2,0,2
0,-13,-50,-16,-6,-2,-2,-3
6,5,-16,-3,-1,-3,-1,-2
-3,-7,-30,-7,-3,0,0,-4
4,2,-11,-4,-1,0,-3,-1
-3,3,11,-2,-2,-2,-1,-1
-5,-2,0,1,2,-1,-1,-6
-1,1,11,6,3,2,1,1
-2,-3,-13,-2,-2,2,0,-1
-4,-7,-4,-2,-3,-3,-4,-2
-1,0,1,-4,-1,-1,0,-3
-2,-7,2,1,-1,0,0,-1
0,1,-10,0,0,-2,-1,0
-1,1,6,1,-1,-2,0,-2
0,1,3,0,-1,0,0,-3
-4,-4,1,-2,0,0,0,-1
-1,1,-11,-3,-3,-3,-4,-1
0,0,-13,-1,-1,-2,-1,1
-1,1,12,-2,-5,-4,-1,-4
-1,-1,-4,-4,-1,0,-1,-1
0,-3,-7,4,2,2,1,1
-1,-3,6,0,2,3,2,-2
1,0,-8,0,-1,0,-2,-1
0,2,12,3,-1,-3,-2,-1
0,-3,-7,-4,-3,1,-2,-1
2,3,15,-1,-3,-7,-1,1
-5,-2,-4,-1,0,5,-2,-3
-2,0,5,1,0,1,2,0
1,0,-4,0,1,-2,0,1
-1,3,6,0,1,0,-3,-2
2,2,5,-1,-1,-2,-1,0
-4,-9,-18,3,1,-2,-2,-2
-3,6,16,-9,-5,-1,-2,-2
-2,-8,-13,-3,1,-1,-1,-1
0,3,12,-2,-2,-2,-2,0
2,7,0,-2,-1,-1,-2,-1
0,-4,-6,3,-1,-2,-1,-1
-1,0,2,0,0,-1,0,0
0,-6,-7,-5,-3,-2,-1,-2
2,3,11,2,0,0,-2,0
0,-3,0,-1,0,-3,-2,0
0,1,-13,-4,-1,1,-3,0
-2,-3,5,2,0,0,-1,0
-4,1,-8,-5,-4,-1,-2,-3
-3,-7,-11,-4,-3,-4,-1,-3
0,-3,-1,1,0,1,-3,-2
-2,-6,-13,-2,0,-2,-2,-1
