4,1,6,-2,0,2,2,1
-7,0,-3,-2,0,-3,-36,-9
11,1,1,-1,-2,0,32,14
-13,-3,-3,-1,-3,1,-25,-4
4,-1,-4,-3,-3,-5,15,-3
3,1,7,1,-2,0,-2,0
-4,1,-33,-6,0,-2,-17,-7
3,-1,10,-2,-1,-3,7,1
-7,-4,0,-1,1,-1,-14,0
2,-2,3,1,-1,0,6,1
-4,3,19,-1,-1,-1,0,-1
-9,-4,-11,4,2,0,8,0
-2,0,-37,-5,-3,-1,-4,-4
10,32,15,-2,-2,1,6,0
-1,-28,23,4,0,-1,0,0
-15,-7,-54,-4,-4,2,3,-2
2,3,13,4,1,-1,-5,-2
-2,-8,-11,-6,-6,-1,4,-1
14,14,-4,-5,0,0,-4,3
8,0,13,6,2,1,6,-2
-13,5,-4,2,-3,0,2,0
4,-9,-7,-1,1,-3,4,1
-15,-34,-7,-6,-3,0,-7,-5
16,1,14,-5,-2,-2,3,-2
10,8,5,1,2,0,1,1
-14,-7,22,-1,0,-1,-1,-1
1,10,-3,-1,-1,-3,3,-2
-10,0,4,-2,-4,-1,5,0
-6,-6,4,0,-1,0,-5,0
3,-4,-3,-1,0,-2,-13,1
-4,1,14,3,-3,-3,27,-4
-5,3,-1,-5,0,2,9,4
-3,19,-12,3,-6,-1,-10,-4
0,-11,2,-1,-2,0,6,0
-6,9,-8,-2,-1,-2,-13,-2
1,-5,5,0,1,-5,0,-4
2,-2,4,-4,-1,0,1,0
-5,-7,-38,-3,-2,-1,-1,0
0,5,4,1,-3,-2,-7,-3
1,5,-19,-2,0,-1,0,-1
-1,-11,16,2,4,1,-1,-1
0,2,14,1,0,0,4,-3
-2,5,-10,0,0,1,-6,-3
5,-3,12,0,-1,-1,-4,1
-3,-7,3,-2,0,-2,1,-1
-3,-4,-2,2,-1,-1,6,-1
0,4,1,-3,0,-1,-3,0
5,-2,-21,-1,-3,1,-3,0
-3,-5,8,-4,0,0,-2,-2
1,3,6,5,3,-4,-2,-3
-2,-3,-5,-4,-3,1,-2,3
-4,7,42,2,1,-3,-1,-3
-4,-14,-48,-2,-3,1,-7,-5
-1,4,18,-5,1,1,-2,5
-5,-5,-39,6,-4,-4,-3,-3
0,2,26,-6,1,1,2,-2
16,-6,1,-3,-7,-9,-3,1
-22,-12,-28,1,-5,0,11,-10
-11,0,10,0,-4,-2,6,1
5,0,-24,-5,-5,-2,-8,-3
-7,0,38,-3,-1,-6,-3,-2
19,8,45,0,2,-3,-9,-1
12,-4,-18,-5,3,-1,2,5
-37,-4,2,-2,-5,-3,-8,-9
-3,-17,-11,2,0,2,-3,-3
10,2,12,0,0,0,0,1
-14,-2,-9,-7,-3,-2,-4,-3
13,0,7,1,4,0,0,0
13,-1,-13,-1,0,-1,5,6
-5,-9,-83,-25,-7,1,-4,2
-5,10,49,32,2,0,6,-5
9,1,48,2,0,-3,-2,-1
18,13,10,-2,3,-1,2,6
-9,-28,-54,-8,-2,1,2,-7
18,14,36,-3,-4,-5,-13,-4
-8,-4,-32,3,2,-3,-72,-11
4,4,33,-6,-3,11,47,11
4,13,62,23,8,-3,18,5
-14,-13,-61,-21,-6,-1,-9,-6
1,-3,46,2,-8,-3,-4,-3
-5,-1,-3,-1,-2,-3,-17,-4
7,8,2,0,3,-1,-16,-10
-43,-5,3,0,2,0,4,4
21,6,-7,-11,-6,-1,27,14
18,6,-5,6,8,5,-3,1
-11,0,6,5,-13,-1,7,2
10,2,16,-5,0,-3,-13,-6
-22,-10,-11,6,2,1,9,-5
-10,7,10,-11,-3,-3,-2,-1
0,25,26,-9,-2,-2,-25,-6
34,23,38,8,5,-1,23,-2
-36,-38,-128,-18,-9,-2,6,-1
-32,0,37,-2,0,-3,-12,-9
12,10,60,-2,-2,0,15,-1
2,-6,-82,0,-1,-2,1,8
-13,-13,-59,5,-2,2,21,0
6,0,-24,-8,-4,1,1,-5
-9,-3,10,2,2,-7,-17,-7
29,1,27,-10,-1,4,4,18
-32,3,-63,12,-5,-6,-5,-5
8,12,25,4,2,-6,5,-6
-24,-16,-35,3,-7,4,2,1
-7,-35,6,-4,-9,-2,-5,-9
8,11,51,3,15,-2,12,0
5,0,-46,0,-13,-5,-14,-3
12,2,20,1,-4,-1,10,5
-3,20,68,19,15,3,-75,-11
35,-7,-8,-17,-8,1,83,21
-32,-13,30,-3,0,-2,-7,-11
10,-7,-94,-7,1,2,5,-1
60,4,48,-6,0,7,-4,12
-31,3,2,2,-6,-6,-40,-23
-33,-5,3,-13,-1,2,6,4
3,-13,-27,-3,-4,1,5,-1
-23,-28,-32,-8,-3,-7,-5,-9
31,9,37,-27,6,-1,-12,1
-6,-5,37,67,5,-5,11,-9
-29,2,-33,7,-9,4,-10,9
-3,7,-13,-6,-4,-8,11,-5
-8,-24,-52,-37,-11,0,4,4
-8,7,45,36,11,4,-16,-15
-37,16,69,2,-5,-5,2,3
31,-11,-10,-1,10,-7,2,-6
-20,10,23,12,-3,8,6,9
15,2,-53,-39,-12,-8,-15,-2
-24,-2,27,33,18,7,-1,-8
15,14,32,-38,-19,0,26,11
97,-2,36,21,2,-5,-34,-6
-33,-1,-75,-66,-9,-6,11,-4
-64,-34,40,46,11,-4,-8,-9
-51,-3,19,6,-5,7,-7,-3
-6,21,20,4,8,-1,-9,-5
126,-9,-48,0,0,3,9,17
43,22,11,-40,-11,-7,-4,1
6,-11,-37,-4,-1,-7,-6,-7
41,17,70,31,16,5,6,13
-56,-47,-44,-14,-21,-8,-3,-12
123,3,7,-8,7,5,5,3
-67,-1,-12,9,-10,2,10,5
2,18,23,-21,-10,-12,-14,-11
6,13,27,-28,8,4,-8,10
22,-11,-54,16,0,-7,9,-2
-30,21,75,24,6,16,16,13
42,-2,-65,3,-5,-6,-8,5
-58,19,17,5,11,-3,-13,-18
-58,-33,-21,-31,-18,0,6,2
30,4,-21,-6,5,-1,-5,-14
-29,-5,51,72,6,8,7,11
15,-7,59,22,-8,2,13,9
19,19,-12,-20,3,-8,-1,-7
73,5,66,9,12,-5,3,-4
23,-24,-33,-45,-7,-4,7,-5
57,22,74,2,-6,1,3,39
61,8,25,19,4,10,-13,-14
-51,4,27,1,-3,-4,0,-1
-3,-29,-49,-18,-17,-1,15,6
43,-25,-69,-26,7,-9,-34,-27
-96,10,70,18,7,13,14,25
85,-8,-70,1,-8,-5,-10,-6
6,29,35,-21,-8,-7,-5,-30
79,-8,-91,42,7,2,-6,15
44,-19,-24,3,-8,-3,-20,-5
60,12,31,-56,3,1,-5,-17
49,-1,15,9,-3,2,16,18
-15,19,4,41,3,0,-1,-8
123,11,16,-74,7,-2,5,24
-51,-24,-52,56,-8,9,6,17
-77,-4,-20,-3,-6,-2,-3,-15
-15,7,76,0,-6,-1,2,-23
127,16,-40,-16,12,-13,-17,-18
-91,-56,-72,-85,-10,-5,28,26
107,-21,49,64,1,0,-12,15
-88,1,53,51,20,20,19,9
1,-12,3,-11,-26,-10,-25,-28
59,54,11,42,13,-7,-13,-10
-51,-8,17,-14,27,6,-9,-28
127,21,-46,-79,-32,-6,16,24
46,-13,-8,-55,-25,-17,-43,-12
-128,12,-12,115,32,17,34,35
89,-34,-18,-47,-31,1,11,-17
-16,9,25,-35,8,-12,-59,-36
-63,17,-5,-55,-12,-5,68,45
27,26,15,61,7,10,19,8
7,4,77,87,17,1,-35,-5
7,-15,4,20,-1,2,29,-6
-66,71,43,29,18,32,10,6
-7,-61,20,-13,-6,-34,-47,-20
18,50,13,-7,15,7,47,32
-34,-25,-52,-18,-5,-16,-50,-11
98,39,-26,-76,-29,-23,-14,-33
-35,35,68,59,26,29,41,1
-38,7,-43,-75,-44,-15,-24,-5
-24,34,25,18,12,0,40,11
-35,-21,-6,-27,15,-6,-30,-8
-29,-38,35,-49,-45,-3,-8,0
35,25,-77,-33,6,-7,-34,-25
5,-55,22,-35,-4,-4,21,3
-36,16,30,82,17,5,13,-2
127,37,-9,-65,11,-9,-14,11
9,-46,21,20,-7,7,2,-16
-51,39,-48,-59,-2,2,-6,-11
45,-99,2,63,-1,-1,-4,19
46,5,-100,-39,-3,-5,1,-2
-103,15,29,-56,-2,12,31,24
44,-33,6,49,2,-7,2,4
83,-10,-1,-95,-13,-11,-6,-13
86,25,92,91,47,25,-10,15
-82,-6,-5,-48,-30,-11,-20,12
-62,-19,-26,-39,0,12,19,-10
23,34,31,42,27,3,21,67
-2,-29,-81,15,-39,-24,-29,-50
6,2,27,-15,32,1,-42,-36
14,-12,-6,101,-14,12,14,19
-128,22,-6,-9,-5,4,7,-10
48,-4,11,-30,-5,1,-5,21
26,-4,25,48,9,12,29,5
-21,-34,-43,7,4,-7,-38,-24
81,62,45,-62,-6,-12,0,-7
15,-63,-40,64,-12,-15,-13,-13
-3,5,31,25,1,2,34,33
53,-12,14,-48,-10,-1,3,11
6,-13,-45,-34,-4,4,-31,-29
20,-5,40,38,21,16,-3,5
10,50,-73,-54,5,-8,26,36
-37,2,72,-34,6,13,-10,-18
12,-44,-56,127,16,-3,35,-12
-118,126,108,-54,23,-2,10,20
-77,-128,-69,-65,-42,-17,5,-15
-63,14,13,-36,-7,6,-46,-28
-67,-12,20,18,19,10,-3,-20
-4,-2,-21,-88,-12,-3,5,6
127,51,16,104,14,-6,-14,-8
124,32,-33,-33,-16,-12,38,38
-28,-30,-44,-9,6,16,-38,-23
-28,4,-29,-51,-16,-26,56,-21
71,-21,28,73,-13,-9,-61,5
69,44,18,-86,-5,-3,-31,-17
83,-8,2,64,-21,-14,75,55
28,-64,-9,2,1,18,-28,-34
-107,31,-27,-109,24,13,-2,11
-4,52,58,30,6,-5,47,29
77,-50,-9,-67,-26,-15,-32,-55
-16,62,-40,55,-5,-12,-27,15
55,-6,27,-82,0,-5,-37,-31
-18,67,5,75,12,4,-26,-17
-110,-18,58,-69,-9,5,32,28
74,-45,-27,45,-11,12,22,-2
69,20,-35,-42,6,-10,-68,-51
18,23,21,89,-5,-11,45,-19
-33,63,6,-34,-14,-7,29,36
98,-63,36,-19,-3,11,42,27
-35,-4,-76,-29,5,0,6,15
-51,-1,-4,-35,24,15,-84,-40
16,13,43,6,0,20,59,1
-13,-26,-25,-40,-6,18,57,43
67,30,3,72,17,8,-9,7
-41,7,50,6,16,-10,-87,-49
18,-68,49,40,6,5,52,37
19,-71,-84,-59,-28,-14,-67,-23
-73,34,-22,-7,-11,-9,-45,-49
-6,-2,25,34,8,6,-20,31
-102,115,-45,2,27,13,-128,-107
57,-77,83,-10,-33,-11,102,85
-39,-55,41,-8,-24,-19,2,9
112,-22,-109,-45,-10,-2,5,-7
-41,64,-8,-37,11,1,-57,-17
97,6,7,52,21,-14,5,-18
-35,37,39,49,20,30,82,69
9,-73,52,-90,-23,-13,42,13
12,-45,-93,21,-9,3,-28,6
-128,10,57,16,-11,-15,-60,-70
29,-23,127,-73,4,-21,-63,-19
80,-14,-87,-96,-8,4,108,56
41,-49,-74,62,-35,-25,9,13
13,122,42,-34,20,22,-15,-16
-72,3,-12,60,9,26,-9,18
87,-110,2,53,-25,-32,17,-5
48,17,40,-10,2,-14,-44,-18
-87,-1,-83,-42,-11,7,-16,-9
-98,100,32,25,11,12,16,5
22,-81,8,-53,-17,-9,14,-21
-7,-57,-44,33,13,7,28,-4
113,-10,12,-46,-25,-15,-6,-12
45,-13,36,35,6,19,33,-1
-128,78,1,126,54,6,-44,31
-2,40,43,-83,-19,1,73,21
39,-65,-23,-14,4,-25,-108,-92
127,48,8,94,19,29,103,80
18,-33,-1,-85,-46,-5,27,4
-10,7,40,-39,14,16,-62,-37
51,81,-4,-8,11,-8,-55,12
-8,-12,-68,-50,-22,-23,-10,-15
-51,23,120,36,-3,-13,20,34
85,-66,-22,-15,4,5,-13,16
-128,12,-29,-116,6,12,-44,-27
99,38,57,81,3,9,65,55
36,-57,-67,-44,-23,13,-21,-22
-99,58,25,-1,18,-32,-48,37
97,0,-14,54,7,2,28,4
28,-31,-36,-80,-13,-17,3,-18
9,-42,-7,-7,-2,14,58,-6
-22,16,4,-3,-32,-10,-1,10
-88,-19,-48,-79,21,1,-101,-96
-64,59,84,34,25,2,50,34
57,60,-22,7,-7,14,50,54
18,-100,-49,-46,-8,-12,-62,-41
-45,32,44,5,-1,0,-24,10
-21,-22,8,-59,19,-36,-75,-63
-38,57,107,7,33,19,64,79
7,37,-69,-5,-7,21,22,37
96,-95,-31,-28,-14,-33,-37,-59
-103,14,34,35,-3,4,-4,17
-43,-25,-30,29,7,4,-17,-29
74,52,-11,-41,11,4,-80,-14
-50,40,11,3,-2,-1,117,65
86,-86,-30,-21,-16,-9,-40,-5
-70,-26,-19,-83,-5,-13,-56,-86
7,44,99,67,32,50,45,19
-54,17,5,7,-26,-22,81,65
66,-108,-71,-64,-20,-37,-90,-83
49,59,59,67,51,17,68,79
98,16,38,88,15,8,22,-10
-14,-34,-27,17,10,21,8,13
-44,-6,-15,9,-12,1,-43,-35
-3,55,3,-68,-17,-3,-66,-7
-94,56,77,41,14,-21,8,-10
89,-42,-3,-83,-32,18,40,48
-93,34,31,15,-12,-3,-6,-3
56,-62,-123,-29,-25,-21,-28,-37
42,34,65,-5,11,-13,-13,3
58,-40,16,-53,-20,-18,4,-32
38,-14,7,-4,-11,7,2,-28
-37,29,33,26,5,1,-21,-4
-92,-35,-104,-86,-9,-10,-79,-29
-119,115,45,-3,38,11,19,11
127,-89,-77,-108,-47,-3,91,47
5,10,114,127,46,21,9,5
-40,-118,-75,-34,-10,2,-9,-28
-87,70,93,-63,-8,-3,-84,-37
20,58,-6,11,19,-2,-47,-32
65,2,-24,-67,-29,-18,52,68
-23,0,86,-25,-5,5,27,8
31,-80,7,41,1,-8,1,-26
-53,32,-49,-22,0,8,-22,-39
-98,14,1,-45,16,20,-128,-59
124,22,39,80,-10,-25,126,86
-2,-26,1,23,-19,-2,0,12
-51,16,26,8,27,13,-58,-9
51,10,-44,-68,-26,-21,-67,-29
65,-84,-34,11,-11,-4,25,-29
9,52,49,7,15,20,7,19
-21,-25,-48,89,3,21,21,-3
-128,50,-8,-77,-15,-17,-21,-12
57,-46,-35,43,-10,-13,-4,-17
-5,42,48,-9,-11,-15,-10,-12
-42,-45,-24,-37,-6,1,25,16
-21,1,21,-13,-1,0,12,-6
-57,50,35,-80,-6,-9,-32,-11
53,2,-46,11,7,16,-9,3
-62,27,42,-26,-20,-16,-5,-17
98,-32,-65,26,-5,-9,67,20
-10,0,4,-24,5,5,-7,-6
-61,-10,-39,32,9,-6,-54,-12
-44,24,32,-15,5,6,46,20
72,-22,-29,10,-12,-4,-15,-10
-52,-2,1,-5,-2,5,0,-13
-7,5,0,13,0,2,12,9
17,12,14,-10,-2,-11,13,11
6,-3,-11,20,7,5,-15,-14
-24,-4,16,-15,5,0,6,5
-9,-34,-12,27,-3,0,6,9
49,6,-10,-13,-2,-3,1,9
-18,7,13,5,4,1,-1,-7
-27,10,-10,-17,-7,0,-14,-7
12,10,-14,11,-1,-3,14,8
17,-20,16,0,4,-5,-4,-3
-15,45,14,12,-4,-2,-12,-12
1,12,-11,-13,-4,0,8,10
-15,47,-29,-3,1,-1,-2,-2
2,65,15,3,-4,1,5,10
-3,7,-6,3,10,-3,-3,5
-3,57,-5,-4,-1,-3,-3,-3
6,-11,-5,13,5,7,10,2
29,-31,-3,-26,-1,3,-4,-1
-4,-48,0,45,2,4,1,-6
-15,-59,2,4,1,4,2,1
2,-34,1,-9,2,-2,-1,2
6,-18,7,0,7,-1,2,1
1,28,1,2,-1,0,-3,-3
1,-106,-13,-4,-6,-1,1,2
-2,54,0,3,0,-3,1,2
3,-6,-8,-3,0,-2,-1,-1
-8,-2,2,0,-2,0,-6,-5
5,18,3,-6,-3,1,0,3
-25,24,-1,10,3,-1,5,-2
2,-3,8,14,-1,0,-1,0
-3,-10,-3,-9,0,0,-6,-3
-7,9,-1,-10,-3,-1,-3,-5
-22,0,-3,-5,1,2,1,3
6,15,3,0,1,-1,-2,-1
-3,-18,-3,-1,-3,0,1,-2
-2,12,-4,8,1,-2,-1,-1
