-1,0,4,1,3,0,2,-1
0,0,-3,0,0,1,0,2
-1,-4,-2,1,-1,0,-1,-1
-1,-1,1,-2,-1,-2,0,-2
-2,0,-2,0,-2,-3,-2,-2
-1,-3,-3,-1,-1,-2,-3,-1
-1,-1,-3,-2,3,-1,-2,-1
-3,0,1,-1,-4,-2,1,-2
-1,-1,4,-1,1,0,0,-1
-1,0,-3,0,-2,-2,0,0
-2,-1,2,-3,-4,-2,-3,-2
-2,-1,2,-2,-1,0,0,-1
-1,-1,-2,-2,-1,1,-1,-1
0,0,4,2,0,0,-1,-1
2,-1,-2,1,-2,-1,-1,0
-3,0,-4,-2,-1,-1,-2,0
-1,-1,-1,-1,-2,-1,-2,-1
-2,-2,-1,1,1,3,0,-1
-1,0,-2,-2,0,-2,0,1
0,-2,-1,0,-1,0,-4,0
-2,-2,-2,1,-1,-3,1,-2
-1,0,-2,-1,-3,-1,-4,-2
-1,-1,-3,1,1,-1,0,-2
0,-1,2,-1,0,1,1,-1
-2,-1,-4,-2,-1,-1,-2,-1
-1,-3,-2,0,-3,-1,-2,-3
-1,3,1,0,-2,-1,0,-2
2,-1,-1,-1,-3,-1,-1,0
-2,-2,-1,0,-3,-1,-1,-1
-1,1,-1,-1,0,-1,0,0
-1,-2,-1,0,-1,-1,-1,-3
-1,0,-1,0,0,0,-1,-1
1,-2,-5,-6,-1,1,1,0
-2,0,1,9,1,-2,0,-1
-1,0,0,-2,-2,0,-1,-1
0,-1,4,0,-2,0,-3,-1
1,-1,-22,-1,-2,-1,-1,-3
1,1,4,-5,-2,-1,-1,-2
-3,-4,-3,0,0,0,-4,1
0,-2,-1,3,2,1,4,-2
1,1,4,-1,-1,-1,-2,0
-5,-1,-3,-4,-2,-2,-1,-4
0,1,-5,-2,-4,-2,0,1
-2,-2,0,0,0,0,-6,0
-2,-3,2,1,0,-1,4,-1
0,-1,-3,-1,-1,-1,-1,1
-1,0,2,-2,-2,-1,-1,-1
-1,-1,-5,-1,-1,0,-1,-3
-2,-2,3,1,2,0,-3,-2
-1,0,-2,-3,-1,0,-2,0
-2,1,-4,-2,-2,-1,0,-1
-1,-1,-3,-1,-2,1,0,-2
-2,0,0,0,-2,0,-3,-1
0,-1,-2,-2,-5,0,-1,-1
0,-3,-2,-3,0,0,-1,-2
1,-1,2,-1,-1,-2,1,0
-1,-1,9,3,-3,-1,0,0
-2,-7,-20,-6,-1,-1,-1,-2
-2,-2,-14,-1,3,0,-17,-1
-1,0,0,-2,2,-2,18,9
2,5,3,-4,-4,1,8,7
1,-3,8,2,0,2,-5,-6
1,-1,-2,0,0,1,7,-5
-4,-8,-6,-3,-1,-2,-9,-5
0,-1,-4,-3,-2,-5,-14,-1
3,4,0,-2,-1,-7,-14,-6
-8,-3,1,2,2,12,46,6
5,4,-2,-4,-2,-2,2,6
-2,-11,2,2,2,4,11,3
-2,-1,-1,-5,-1,-1,-11,7
2,0,5,5,-1,-6,-17,-6
-4,0,1,2,-2,0,0,-9
-4,0,12,-1,0,-2,-12,-4
0,-3,-34,-5,-3,-1,3,1
0,-6,-21,-5,-2,-4,-5,-2
-3,3,6,-1,-2,-1,-5,5
1,-4,2,-1,-2,-3,-3,-24
-4,-4,15,0,-1,1,4,-6
3,5,6,-4,-2,-2,17,9
-1,-12,-19,3,0,-1,-87,-20
-10,0,-7,-3,-3,-4,56,9
-1,1,9,3,0,3,-16,-8
9,2,-2,-5,-1,0,8,9
-7,0,12,4,2,-6,-1,-25
4,1,0,-2,-1,8,15,16
1,-13,-2,2,-1,0,25,15
4,4,8,-2,0,-9,-36,21
-14,3,21,-4,1,-3,-41,-18
-1,0,-15,4,6,-2,1,6
6,3,-7,-4,-5,12,68,12
-5,-6,11,-3,-10,-8,-3,-20
5,3,18,-4,-5,6,14,-1
-2,-6,-46,-3,2,-17,-35,-21
-3,2,6,0,1,1,-40,18
-3,2,-2,-2,1,3,36,-1
-3,-3,-5,-2,-3,-7,16,13
-3,-4,4,-1,-4,2,-17,-10
-9,2,12,5,5,-3,2,34
12,-5,-7,-3,0,4,-3,-45
-10,-10,-17,-2,-1,-4,-20,11
14,-1,12,3,3,5,27,-28
-12,-6,-29,-4,-2,-13,-24,-18
-15,10,24,2,-4,17,28,-1
10,-4,-5,5,1,7,-12,7
5,7,15,0,-1,-5,-94,49
-7,2,9,-3,-4,3,9,-30
-12,-13,-7,-3,1,-11,-12,-36
0,6,-6,-4,17,10,-74,16
21,4,12,5,-6,24,41,59
-5,5,0,4,0,-5,-70,-59
9,-10,-5,2,8,-4,19,54
-4,8,-5,-3,-7,16,15,-47
-9,-8,17,1,8,-17,-88,6
10,2,-7,-6,-3,24,87,58
23,6,4,9,2,3,-24,-19
10,1,35,-5,-4,-29,-17,35
-17,-15,-95,-7,-11,-12,-36,-55
5,6,22,-1,-5,-16,-36,-21
-15,3,4,-2,-3,-5,-22,-38
5,-2,-1,-1,-2,-8,32,-7
-5,7,23,-1,0,-3,22,-5
17,6,22,0,0,1,-17,46
-10,-15,-40,0,2,-15,2,8
-3,17,12,2,3,31,36,8
-4,-11,-31,-8,-2,-10,-56,-32
26,0,-12,-3,6,17,114,92
-6,-2,21,2,-1,-7,10,39
0,-1,-17,-5,-4,5,-50,-14
7,3,50,7,-9,-18,-44,12
24,-4,-9,7,7,-30,-3,74
-26,-8,-21,-21,-16,6,-123,-13
6,-3,-21,1,2,-32,-54,-13
27,0,14,-2,6,51,85,34
-29,-2,2,-5,-1,-4,-128,-119
-67,-2,-10,-7,-6,21,82,-14
6,6,-1,4,-8,-5,-52,-95
-53,6,26,-6,-7,-38,-92,-55
-8,-21,-39,-9,-10,-7,80,-65
1,5,19,3,-7,-22,-125,88
-16,0,-30,3,7,18,57,-36
0,1,16,-2,5,40,100,62
-15,-1,-22,5,4,19,-102,-63
18,19,27,3,4,-9,82,-9
-26,-27,-27,-5,-19,-11,-62,-59
8,-2,14,-5,3,-43,35,62
-40,-2,-27,-7,-8,-35,-57,-77
69,-3,27,7,23,-33,14,-36
-55,-25,-83,-12,-32,68,-49,10
-10,4,8,0,9,-58,80,30
17,-1,39,1,-7,19,98,-27
3,7,10,4,12,-55,-128,-15
-16,-7,37,-8,0,11,47,-5
-1,-1,-36,-4,-4,-41,-128,-23
83,1,-61,3,-2,1,41,-2
7,0,16,6,0,-75,-126,73
-42,-21,-15,-18,-31,63,-27,127
62,-3,17,0,-14,70,-122,-15
-16,4,36,7,-1,-65,-120,-9
-22,-8,-25,-15,-9,35,-101,-89
61,33,41,21,38,-59,118,102
28,2,-14,3,-14,-70,-52,35
7,3,44,-2,-6,86,-33,58
6,-21,-55,-10,-6,-69,100,54
5,6,31,11,11,24,-49,-21
-6,22,-8,0,18,-31,-20,-59
3,-20,-9,-10,-19,48,-73,-52
24,24,33,3,8,-4,80,70
18,-19,31,-1,3,33,-21,59
12,-10,-52,0,-5,51,-46,74
30,3,12,3,-4,7,-58,6
-61,-43,-27,-15,-3,26,-88,-25
-25,10,9,-5,-18,-52,-92,-128
2,-2,5,3,-7,-81,-103,-109
-22,5,35,-1,22,75,78,127
-42,-3,-77,-10,-23,15,40,-128
-23,17,-6,-7,9,-128,-40,47
46,-18,39,12,-11,73,96,58
-29,1,-29,-8,7,26,-18,-47
19,10,30,15,3,67,25,-24
-15,-3,-15,-5,-4,-45,-23,101
-8,9,-24,-10,13,7,-5,40
11,-29,3,-6,-6,-10,-47,110
28,13,31,13,-1,-52,-118,72
40,-26,10,-1,14,98,48,98
-16,13,-32,-2,4,-29,28,15
-38,23,-11,-2,8,69,-52,-4
32,-29,-43,0,-6,85,-82,-81
0,8,-7,1,14,-49,-80,-25
54,27,30,0,1,109,2,-2
-35,-52,-21,-19,-47,-128,-94,-79
-70,30,63,8,-3,-51,11,-47
39,2,-47,15,17,-35,90,15
-16,-4,20,4,13,86,-58,26
15,17,-7,11,6,-13,-19,13
13,-4,28,-5,2,-106,70,-32
15,-5,-11,-2,-6,113,52,33
33,15,10,10,11,-128,-126,-128
-14,-4,52,1,5,117,127,79
-15,4,-26,-13,-12,-30,-95,-60
-92,-5,9,-3,-7,-33,-92,2
63,-15,-7,-12,-20,52,127,44
-66,-5,17,5,12,-116,-128,-97
39,2,-2,7,30,127,86,123
-7,-6,22,-3,-19,-45,74,-116
-38,6,-13,1,-14,-93,-66,-57
-31,-9,3,8,30,-128,-105,-128
39,-10,-2,-3,-6,109,-47,127
28,1,-2,16,15,-69,-112,-56
-65,2,8,0,12,101,97,77
-6,11,-35,-4,-19,23,-37,-24
11,-4,0,-11,-26,-91,-50,-52
72,24,-8,1,7,-11,-128,-87
-27,-21,3,-8,-14,84,54,20
72,28,17,6,6,-96,-74,27
33,-15,-7,-1,-9,122,-38,105
71,-17,2,-9,-20,-70,54,-55
-29,5,5,-6,-5,-12,6,28
-36,14,-10,-1,-12,-40,-74,-57
44,-38,-40,-10,-10,-52,-6,2
59,27,81,6,28,89,8,-33
35,-17,-83,-12,9,-105,-81,1
69,18,45,-3,-5,76,-66,48
-43,24,50,-8,-24,-91,60,44
-60,-28,-54,-11,-31,114,78,3
-34,-27,-3,-5,-9,63,-106,-61
40,8,-17,5,-3,-75,68,40
100,44,56,16,40,92,-45,-26
-68,-23,-70,-11,-21,-71,74,87
-1,-14,-1,-2,3,88,24,-22
6,-8,-1,1,1,-85,55,127
-73,-2,18,-2,-16,-34,-48,-89
17,19,44,4,-3,-128,-79,-25
-30,-8,16,-1,-9,-118,-54,29
16,-1,16,6,28,-8,7,-79
-15,-19,-34,1,-14,58,-46,-119
-13,-18,-68,2,10,116,-110,-53
-55,22,24,6,18,40,35,-60
-16,-42,-11,-8,-36,-60,-128,52
39,30,47,5,18,-65,-76,-30
-58,-5,-40,-18,10,-121,-128,-30
-33,-23,-9,13,-14,-49,-37,-30
-48,26,-1,-2,4,-31,-45,23
2,15,-4,8,31,109,61,80
1,-18,64,-2,19,-19,-51,32
45,35,-11,-3,21,68,22,61
-54,-43,-24,-13,-35,-48,-67,-5
-38,14,-9,-11,-8,-128,-128,-68
-1,25,37,4,11,31,84,79
60,66,26,4,-13,-128,-128,90
48,-19,-57,-17,19,127,127,127
-8,13,-10,11,17,-18,-71,-50
32,5,21,-5,3,-34,23,95
-24,19,61,9,8,-3,-29,-128
-32,-14,-50,-11,-20,53,-49,-95
-45,5,-46,-7,-7,-116,-52,-28
66,15,-11,1,10,124,0,24
-41,-13,37,8,-3,-6,-24,-128
22,0,-33,-10,3,-51,38,4
7,-33,20,-4,-16,43,125,-87
-9,4,-6,-11,-30,-9,30,14
32,3,7,-10,4,-61,-52,-38
-8,-2,-6,11,4,-35,-78,-20
-9,-53,-14,-16,-24,42,95,127
-55,28,6,6,-4,-26,-127,-113
63,-58,-33,-18,-4,-64,-6,47
3,26,39,6,13,-25,-16,-111
10,37,27,1,4,25,15,127
42,-59,-42,2,19,7,-6,24
-43,-45,-5,0,-19,-25,-16,109
51,27,21,5,5,81,-59,-17
-17,26,6,7,17,-128,-96,-78
-33,7,47,9,-26,55,-92,6
5,-9,-40,-7,-10,25,-73,-54
-1,24,48,4,9,-108,84,58
35,2,-9,6,22,95,-113,27
0,-2,-17,-32,1,-31,-37,-7
41,11,27,17,-13,-107,-128,-90
-33,2,39,9,-2,68,-5,-27
-104,-38,-65,-9,-4,-124,38,-35
10,-51,33,11,15,68,47,-88
22,-11,-26,-10,-2,88,59,64
71,38,31,11,38,106,-42,-8
8,-35,-8,-11,-13,127,2,5
25,62,0,11,-18,-126,-22,6
-94,22,-6,1,20,34,-3,13
-27,-35,-13,2,-11,-122,17,-75
14,26,61,1,15,113,44,-74
-46,-50,-46,-6,-41,-125,-118,7
1,2,55,-10,5,117,52,59
44,-10,-65,-11,-18,-85,91,25
5,4,27,13,10,-64,-13,37
67,33,0,-2,-2,-68,15,14
-29,-16,-41,-7,11,79,15,-31
15,-39,18,-4,-2,-84,-90,-49
17,23,-18,3,-1,-15,76,31
-13,12,-20,-22,-21,-37,66,55
12,-5,-5,-11,-23,20,-64,18
-55,-10,-6,-9,-9,-44,-65,-11
-40,-31,-34,-15,-25,-39,-81,-38
12,6,-20,3,15,-102,52,37
2,8,6,2,-15,-86,44,15
13,-4,-13,-4,-16,-40,-87,-17
-16,16,31,10,-9,-17,-60,-60
-9,23,27,14,32,120,45,-100
65,3,-43,-3,8,-10,82,-16
22,14,32,8,2,-30,-56,46
58,-8,-12,13,25,-7,-79,63
63,-32,-61,-13,-4,113,2,44
-24,-29,58,11,22,42,75,55
14,51,12,1,-10,-13,-12,-37
50,2,26,-2,14,83,-8,55
-12,21,52,12,-1,-113,-54,-2
-104,-32,-53,-13,0,46,-112,-103
-6,18,-16,-8,2,127,-20,-30
-8,-13,5,4,-18,-115,-117,-66
21,-20,-3,4,1,-87,-78,0
-37,4,-13,-14,-14,-35,38,13
36,1,33,4,9,-7,-93,-44
-8,0,-45,-15,-23,20,-80,64
-45,-40,7,-10,-27,0,-105,40
49,49,49,5,6,-128,-128,-38
-47,49,-33,7,9,127,67,91
-8,-18,43,-4,-10,-88,13,11
2,18,-14,2,7,-74,-18,-42
11,21,8,2,-17,70,-54,12
-26,-47,-46,-15,0,-73,49,75
-25,11,-28,1,-15,-37,-39,-102
-16,-8,40,13,15,-23,-50,-30
-16,-2,-34,-8,-11,41,54,-6
-17,-30,31,4,2,-105,-122,-116
-13,-28,-28,-12,4,99,117,102
39,3,-22,0,-15,-29,-34,-90
23,11,7,9,17,-79,-127,-40
-32,-17,-23,-7,0,1,9,-31
8,54,5,-5,1,40,-15,-41
1,-33,-21,1,0,29,63,18
-13,-22,-21,-14,-8,-113,-3,-50
-2,31,20,3,-1,29,-7,9
3,7,1,7,3,-16,45,-61
-35,-7,-17,-5,0,25,-4,0
8,10,0,3,-4,-127,-38,-13
4,-42,-1,-1,-2,-4,40,42
21,15,15,8,-1,-71,-68,2
-31,-3,-4,-4,-2,1,-49,-11
31,-2,5,8,1,-74,67,35
14,12,35,2,1,29,-18,56
-16,-37,-63,-10,0,-8,-38,-43
-2,17,-7,-1,1,-21,99,23
-3,-1,1,5,8,-64,-65,-34
-2,8,28,9,0,108,116,-1
22,-10,-1,1,-1,-34,56,32
-10,7,17,-2,3,13,-47,1
-6,-9,-4,1,7,18,-54,-18
7,-9,-25,1,4,-31,15,-31
-7,2,-4,0,-3,11,-73,-15
12,-4,12,6,-2,53,-29,-2
-8,-6,14,3,-2,126,21,11
0,4,18,-3,1,93,-10,-12
2,-5,-19,-5,0,41,-15,-1
-3,20,14,-4,1,73,-10,-11
1,-6,-5,1,-3,32,-32,-4
-4,-3,-10,-4,-8,-53,-15,2
3,-3,25,3,-1,-60,7,5
2,-2,-20,-5,0,-45,-9,-5
-4,-4,11,-2,-1,-31,24,13
3,-7,2,3,0,-33,14,0
2,-2,-2,5,-1,-41,12,5
-1,8,17,-1,-1,-12,-4,-4
2,-2,-8,-4,-5,-3,-4,4
-1,0,-15,-5,-3,-28,-12,-2
3,-1,16,-1,2,-7,-19,-4
-4,3,-25,-1,0,22,13,6
-2,-3,23,5,2,20,1,3
3,-7,-4,-6,-4,-8,-10,-1
-1,-2,-13,-1,1,0,4,3
0,5,34,-1,-2,21,-8,-4
-1,-5,-32,-5,-4,2,9,3
0,0,11,4,-2,-7,4,-2
-1,-4,-15,-3,-1,1,-2,-1
-3,2,9,-6,0,8,-6,-5
1,0,15,-3,-2,4,-5,1
-3,-5,-9,5,2,-2,-9,-2
-1,2,13,-1,-5,3,0,0
0,3,13,1,0,2,-8,-1
-5,-14,-66,-7,-3,1,2,-3
2,-1,-7,-9,-3,1,1,1
1,4,8,5,-1,-3,5,2
-2,1,14,5,-2,0,-3,-2
1,8,22,2,-2,1,0,4
-3,-9,-22,-11,0,-9,-5,-2
-1,-7,-24,0,4,-4,-1,0
-2,-1,18,4,-3,2,-4,1
4,4,8,9,0,4,-1,2
0,3,-1,-3,-3,-3,-1,-2
-1,-1,10,-7,-3,0,-1,0
-1,1,-10,-5,-4,2,-3,-3
1,0,2,5,4,1,0,3
-1,-6,-32,0,-3,-3,0,-1
-3,-5,3,-4,-2,-2,0,0
-2,-1,11,0,3,-1,-3,-2
1,1,-8,1,0,0,0,0
-2,4,13,1,-1,-3,-3,-1
1,6,8,0,0,-2,0,1
-2,-9,-13,-3,-3,1,-2,-1
