-2,0,-8,-4,-3,-2,-1,-1
-1,0,6,-6,-1,-1,-1,-2
-2,-1,-6,4,-1,0,-2,-2
-3,1,7,0,2,0,-1,-1
-2,-1,4,-1,-1,2,0,0
-1,-1,-2,-4,-2,-1,-1,0
0,1,-11,-3,-3,-2,-1,-1
-1,-1,10,-4,-1,-1,-2,0
0,3,3,-3,-1,-1,1,0
-2,0,-2,3,-1,0,-2,-3
1,1,-9,0,1,-2,1,1
0,1,7,-2,-2,0,-1,-1
0,-4,-2,-2,-1,-1,-1,-1
0,-1,-6,0,-2,-1,-1,-1
-2,-5,-5,-6,-2,-2,0,-2
0,1,10,-2,1,-2,-1,-1
-2,-4,-3,-3,-3,-2,-3,0
0,-1,-2,2,2,0,1,-1
-2,-21,1,0,0,1,-1,-2
-1,27,3,0,-2,-2,0,-1
0,-1,-3,0,0,-2,0,5
-2,-6,-3,0,-1,-1,-2,-3
3,13,0,0,0,-1,2,1
-2,-12,0,0,-1,-1,-1,-5
-3,-6,-2,1,1,-1,-1,1
1,13,12,0,2,0,-1,0
-2,-5,-8,-2,-5,-2,-2,-2
0,-6,10,-3,0,-2,0,3
-1,1,-10,5,0,-2,-2,-5
-2,-7,7,-1,-1,-1,0,1
-1,-4,-11,0,-1,0,-3,-2
0,-3,1,1,0,0,-2,-1
0,5,2,-9,-5,-2,1,-4
-1,-5,-5,8,-1,-3,-3,-1
3,2,1,1,-2,-2,-1,2
-2,0,-3,1,-1,0,-1,0
-8,-19,1,-2,3,2,0,-2
-1,0,-7,-5,-2,0,-2,1
6,22,2,0,1,0,0,0
1,-31,9,-2,-5,-1,0,0
-3,8,-3,1,0,0,-2,-1
-6,-9,-1,1,-2,-3,0,-1
1,-2,-7,2,2,0,-1,-2
-5,-1,-24,-5,-2,0,-1,-5
-6,8,2,-5,0,-1,0,-2
6,1,9,8,0,-1,0,2
-13,-32,7,-11,-1,-2,-2,-2
10,33,-4,1,0,0,-1,0
17,-8,-17,-3,-3,-2,-2,-2
-50,0,-6,-4,-2,0,-1,-3
-8,-7,15,0,0,-1,-1,-2
3,11,-2,-1,2,-2,-1,2
-5,-23,-19,-3,-7,-2,-2,0
18,20,7,-8,1,0,-2,-1
6,-25,-6,-2,-2,0,0,0
-20,6,26,-1,-1,-1,-2,-5
-6,-27,-46,-1,-2,-1,-1,1
8,8,-7,-2,-1,1,1,4
15,18,11,-3,-2,-2,-1,0
6,-14,-4,0,0,-1,-2,-10
16,6,-22,-3,-1,-3,-1,3
5,-28,4,0,-3,-1,-1,-2
-13,40,-3,3,3,3,1,1
7,9,15,2,-1,-1,-2,2
-8,0,24,1,4,-2,-5,-5
12,-1,-20,-4,0,-1,1,3
13,5,-2,2,-2,-5,-2,2
-4,6,3,-4,1,0,-1,-5
-5,4,33,5,-6,0,-2,1
19,38,-22,-7,-3,-3,0,-1
-28,-4,-39,-4,-3,0,-3,-4
-17,-22,6,-2,-1,-2,-4,-2
0,4,15,1,-3,-3,-5,-5
6,-11,17,1,2,0,-1,5
6,-3,1,3,2,0,-3,0
-4,6,-13,-3,-4,0,4,4
-1,-9,5,-2,1,1,0,8
-24,19,5,1,2,0,-2,-18
-2,-3,-3,1,-1,-2,-6,-2
22,-3,-3,1,-1,-1,-1,4
-56,5,32,-2,-3,-3,1,-6
0,-10,-46,0,-5,-1,0,-5
13,-8,11,-2,2,-3,-2,29
5,7,26,0,-4,-3,-2,-11
-11,-3,-45,-5,-1,-2,-3,-14
5,3,-1,-4,-3,-3,6,9
11,8,49,6,-3,4,-2,-7
-13,-3,44,12,3,-3,2,0
35,-1,-57,-8,2,1,0,3
-45,-29,38,-8,-4,-4,-7,-8
28,6,-8,0,3,2,-2,0
-33,-9,10,-9,-1,4,7,-13
-2,15,78,22,2,-1,2,3
45,47,-27,-3,-1,-1,2,0
-12,-44,31,7,-2,1,7,9
-38,-23,-89,-7,-4,0,-10,-13
3,49,-34,-15,-2,-2,-3,4
19,-26,39,14,8,1,-5,-13
-16,3,22,-10,-5,-4,5,-23
-1,0,26,6,4,4,-11,0
26,21,23,4,0,3,-1,19
18,-51,23,-8,-8,-2,21,18
-19,20,55,5,-1,0,4,-19
27,1,9,3,3,-3,-1,-3
-20,27,14,-10,-7,-8,-2,-2
21,-8,-57,-6,9,7,-3,16
-25,-10,-13,19,0,-5,4,-2
15,-27,-65,-23,-6,-5,-8,-2
-8,-5,-4,0,-3,-2,-19,-12
-5,-19,-48,6,-2,2,10,7
-5,-20,-28,-17,-7,-2,-43,-23
21,-32,-56,-14,1,3,57,44
4,-7,30,-11,-3,0,-6,-10
15,-21,11,11,3,0,19,4
-18,-10,-68,-15,-8,1,14,-2
0,16,14,22,-2,-6,-29,2
20,-35,14,-11,4,-2,19,-5
-16,-19,57,-5,-6,-3,-35,-8
23,5,-1,18,5,-2,-38,-4
-8,37,-7,-4,-1,8,61,11
-28,-17,26,15,0,0,-3,-11
20,38,13,0,0,-5,-23,-4
-14,-15,-4,-15,-2,-4,13,3
-8,-36,-5,-7,0,-10,-40,-20
-19,25,47,29,3,13,17,24
-10,29,37,-12,-1,-1,-1,-5
-6,6,-108,-9,0,-2,10,4
32,26,99,5,-4,-1,-14,-10
11,-24,-22,20,7,-3,15,-6
-31,-31,-12,-26,-12,-6,-7,-10
-23,10,6,-17,0,2,15,12
-9,55,-46,9,3,1,-32,-10
41,24,15,-14,5,1,30,12
5,-9,35,20,3,7,-16,-2
12,-51,67,10,-5,-14,-5,-7
35,-10,24,7,3,7,27,22
-24,12,2,-18,-9,1,-10,-6
-40,38,14,11,7,-10,-11,-29
101,52,-16,1,13,20,40,34
-60,-2,41,7,-16,-5,-24,-6
14,36,-28,8,-10,-7,-11,-11
-26,-73,-49,-7,-13,-5,7,-7
-18,-23,-4,-34,13,4,-5,-1
19,4,18,29,3,0,8,9
2,8,-21,-4,3,1,1,-3
7,14,-10,-15,-8,-3,-9,6
32,16,19,7,-4,-2,-32,-12
-30,-28,-102,7,1,1,19,-4
1,41,23,-34,-11,-12,-35,-8
-15,2,-23,-1,7,4,23,11
9,-7,54,40,-9,-3,-23,-14
4,23,24,6,12,-7,30,1
-5,-44,-23,-12,2,6,-11,-3
-21,-47,-52,4,-7,-12,-18,-8
-69,20,-3,-18,-5,3,4,10
-7,-32,11,3,-4,1,-3,1
-1,13,-25,-12,-3,-9,0,-16
32,28,39,15,6,5,13,21
-6,-15,-41,-13,1,-5,-14,-19
3,-15,75,-10,-20,-5,-14,-5
-20,-53,-71,-28,-1,-4,-2,9
82,29,104,-15,2,-3,-14,-6
6,27,47,40,-4,-3,25,-4
44,-30,-29,-54,-4,1,2,2
38,0,45,41,0,-1,-3,-4
-8,11,-66,-3,7,7,-6,-5
-35,-21,-10,-16,-3,0,5,-7
-7,60,19,-7,12,3,-15,15
-1,-21,41,13,-4,-7,19,-5
24,12,-37,-46,-13,-16,-6,8
12,61,74,47,2,1,-18,-11
-7,5,-46,5,7,-5,-29,-59
127,10,49,-8,4,9,17,43
61,-6,-13,21,0,8,27,2
49,-20,-70,-13,-14,0,0,-2
110,-10,11,-15,-3,-5,-24,11
23,25,-21,16,8,11,21,-12
38,-22,21,8,7,-10,-24,-38
-49,7,-16,9,-6,8,47,29
33,-83,-36,-48,-16,-11,-18,-1
-67,-15,-1,-4,19,-10,-77,-63
69,30,59,19,3,17,106,71
-76,-56,-60,-11,-28,-4,-9,-27
114,41,-53,18,0,8,41,44
-87,-23,-3,-42,-14,11,10,-2
-50,30,28,-42,-26,-20,-77,-33
100,-79,57,51,46,3,-12,-3
-43,18,-67,-34,-12,5,18,13
127,74,16,5,-20,-28,-21,8
-87,-28,-20,67,40,11,-35,-12
71,41,37,-63,-5,-7,-3,3
-128,-17,21,11,9,-4,11,-8
-4,32,70,53,-8,-8,8,19
-11,-11,-47,9,-20,-7,25,-2
-54,-89,-45,-49,-4,-10,-53,-13
-40,25,79,59,27,13,-25,-43
-36,18,-28,-24,-11,-9,59,54
0,84,65,-14,1,15,-25,-13
80,-31,-45,-32,-10,-22,-5,4
-57,-17,-40,-5,-8,-7,-16,-29
-92,-86,53,61,24,19,-18,-21
-25,40,17,-16,-8,-6,15,17
-55,15,52,2,-7,9,16,-7
33,8,11,3,17,11,9,18
96,13,5,4,13,-1,48,33
-86,25,-32,-47,-12,-7,24,14
10,-12,15,34,-9,-7,-32,-52
101,-16,46,-21,-2,7,16,37
22,-21,-33,-3,1,6,-36,-42
17,49,0,-40,9,0,-11,26
94,-34,4,-19,2,3,-1,-37
58,35,10,84,-4,-14,21,27
-12,-49,29,23,-3,-9,7,20
127,-94,-37,-9,12,15,-20,-11
-4,127,71,7,7,0,1,10
41,0,-2,-3,-2,-11,-3,-23
69,8,-64,-32,-23,-14,-20,1
-72,-46,4,41,7,5,-6,-2
37,62,-48,-29,14,3,18,12
73,1,3,17,-32,-5,-7,-55
-89,53,37,25,9,23,0,-18
127,-20,12,-15,-17,-14,-40,-37
-24,77,-77,-16,-7,-18,38,53
-32,50,99,-43,2,11,9,43
88,-92,-102,-32,-16,-18,-14,-5
-87,23,96,34,3,10,-7,-50
-101,-12,14,60,7,27,50,28
46,4,-3,21,1,-12,25,23
-75,-120,28,-71,-14,-4,-21,-14
-14,11,-41,19,20,18,-12,20
-60,-43,55,-51,-30,-12,-24,-26
-1,-109,13,53,-2,-17,-52,-36
-8,41,84,-26,-5,-9,26,-11
56,33,84,60,7,-8,-5,7
-116,-11,36,6,23,20,31,17
52,19,47,-15,-16,-1,-18,18
-48,-22,-95,-26,-11,-7,-85,-48
-25,5,45,11,1,14,117,49
24,18,69,3,0,-4,-10,16
41,-5,-40,-31,5,0,-5,-29
-47,5,-35,21,23,-1,-9,16
-27,-14,-39,-78,-3,-3,-20,-29
103,52,29,97,31,37,67,86
-69,-15,47,-30,-12,-7,33,18
107,-27,24,37,1,10,-9,-3
30,-39,-128,-31,-21,-17,-68,-47
17,3,30,-40,2,-9,34,17
29,16,27,22,-2,13,8,13
16,120,-6,-39,15,20,8,0
-16,-34,14,12,-19,-17,5,-8
45,16,-37,1,3,-12,-48,-20
-93,-10,-15,10,16,11,-13,-12
-3,12,34,33,-4,-8,85,69
-17,-12,-4,18,7,6,-29,-9
-103,-49,-16,-65,-43,-39,-36,-52
102,36,55,23,17,-5,-17,10
49,-60,-40,-16,9,22,-19,-26
-75,14,-31,-1,-7,-24,29,8
80,15,24,26,-15,-4,-61,22
-19,77,-43,-56,24,-5,19,-42
114,70,23,10,-19,-10,75,78
-59,27,-5,-9,-23,15,-47,-68
79,81,-18,3,16,3,0,24
-32,-61,-17,-59,-25,-3,50,31
-52,-40,-56,-9,19,-2,-46,-36
115,17,31,-1,-8,0,11,5
-73,-36,49,8,18,11,-61,-54
22,-38,17,17,-6,5,46,59
-7,-47,-70,-54,-4,4,7,-6
30,-48,21,-31,1,-1,-21,14
56,-49,6,72,-24,-23,32,18
-60,-23,-16,-44,-2,3,-12,-8
-61,31,82,35,4,7,-39,-21
-72,-89,-40,-15,5,-8,-19,3
116,-17,-70,-51,2,-11,33,-42
29,-91,1,12,-25,7,35,7
-88,79,12,19,5,1,-15,-3
93,29,30,5,-13,-19,-12,-13
-61,-46,-17,-43,-2,-3,-40,-49
-14,68,-39,-12,0,14,-6,21
7,-7,1,41,20,-6,-4,-37
9,28,8,-82,-14,-18,-21,13
-93,18,32,9,29,26,53,79
-128,-86,-28,3,-30,-11,-34,-57
83,51,44,-18,5,15,44,15
43,-72,29,-18,-6,-11,22,7
-61,48,26,21,24,-7,-84,-11
-27,39,15,34,32,9,-38,-66
85,-99,-2,-18,-26,20,86,95
-1,3,74,24,4,9,3,12
-48,53,-69,-9,-6,-2,13,6
-20,83,31,8,20,-17,-77,-25
-22,92,38,-20,11,10,-22,-66
71,-50,-47,15,-7,3,21,30
98,34,31,-8,-7,15,44,22
4,-16,7,-67,-31,-17,-10,3
-113,-46,-70,64,13,-10,-36,-11
40,1,86,-3,-10,0,39,21
-80,-36,-23,-11,-11,-12,-42,-27
98,-3,-78,-26,-6,-5,-6,-8
35,5,108,7,-8,-10,27,33
-57,54,7,38,15,13,-31,9
4,-128,43,-17,-29,-16,40,2
-100,56,86,1,18,14,-17,8
-54,-8,-6,25,-8,-11,-68,-1
31,-28,-89,-108,-6,-19,-3,-51
-27,15,39,70,12,20,88,52
33,67,0,49,9,-5,-20,5
94,5,-3,-56,-32,-2,5,-16
-81,22,-55,20,7,-11,-40,6
37,-51,-128,4,-7,-6,49,-6
-54,45,94,17,-11,-1,12,7
-3,59,-29,-32,2,-12,-60,-39
-122,-12,33,52,-1,8,16,-4
49,-28,6,5,-6,-4,-36,-15
-45,-74,64,13,9,-2,-11,-7
29,73,-72,-35,-4,-11,11,-13
-33,45,6,-6,-14,-4,-40,-16
8,1,109,-21,4,-9,4,-24
-88,31,-68,-22,-10,19,15,-16
-3,-24,79,-8,4,-10,5,6
-11,44,-10,21,14,7,-12,-1
23,127,-12,-5,0,-13,-21,-16
5,0,-12,-6,9,1,58,23
27,-109,-62,-2,-21,-12,21,10
-16,48,23,26,18,15,35,12
124,7,-18,-6,7,15,-16,1
127,34,-37,-29,-14,-13,-47,-13
20,-15,43,29,10,3,10,6
58,-2,31,-29,-1,0,15,-8
-3,-11,-55,6,0,9,-38,-17
20,-69,27,7,-4,-8,4,13
-32,-20,-17,-7,-3,2,6,2
1,12,29,-11,5,0,14,10
8,-37,-2,-18,-9,-3,-20,-6
5,14,-18,11,-1,-6,17,-4
-52,-21,10,16,-4,-1,-17,-6
-7,-3,8,10,12,2,18,5
-9,-17,-19,-10,-9,-2,3,8
-11,-8,-12,9,3,-1,-22,0
-15,34,13,-11,-2,-4,-4,-16
27,-25,-39,15,3,-7,-12,-2
-34,-10,17,-11,4,11,31,23
-30,-94,-37,-12,-6,-1,-14,-4
-20,5,18,-2,2,-1,-4,-5
2,-38,-7,11,-2,2,28,19
-23,-9,-15,-11,-6,-4,-32,-19
16,-1,2,-1,7,-1,-4,0
9,43,-1,7,0,2,-1,3
-24,27,2,5,1,3,10,3
8,32,3,-14,0,-3,-16,-10
9,21,-3,-1,1,-1,6,4
-17,-1,-12,-5,0,1,-3,-3
24,10,-12,4,-1,1,5,5
-15,74,17,-4,1,-2,-6,-6
-7,30,-2,-8,-5,-3,-4,-2
-11,-15,4,9,-4,-4,0,-2
8,-4,-7,0,1,4,7,0
-13,-39,-2,-7,-6,0,-5,-3
-2,-54,-4,0,0,-2,-4,-6
-27,-27,8,-4,1,0,-6,5
13,-22,-10,1,-4,-1,8,-2
6,-13,2,-6,-2,-1,-1,0
-27,-1,-11,0,-4,0,-4,-6
9,-6,4,-3,3,-2,0,1
-1,-1,-7,5,4,3,3,5
-13,-16,-2,-8,-8,-4,-8,-7
9,4,-5,-2,-2,-2,-4,-2
-4,-13,-1,6,1,1,-2,-3
4,2,-2,-3,-3,-1,1,1
0,0,-2,-20,-4,-4,-6,-3
4,-3,-2,37,9,3,3,3
-1,-11,1,-4,-5,0,0,-3
7,6,-3,-3,-4,-2,-1,1
-7,11,1,-3,2,-2,-2,-2
-3,5,-5,-4,-2,-1,-1,0
1,0,4,1,1,0,-3,-3
-1,-5,-2,-4,-2,-2,2,0
-7,-25,-2,5,0,3,-1,-2
7,0,-4,-4,-2,-2,-1,1
0,-6,-1,0,1,-1,-6,-6
-3,-1,-1,-3,0,1,2,3
3,13,-2,1,-4,-1,-1,4
7,20,-2,-7,-2,0,-1,0
-2,25,0,4,0,0,0,-1
-5,-42,-4,-2,-5,-4,-1,-3
-4,12,1,1,1,-2,-2,-3
3,15,-3,-6,0,-1,0,-2
-2,7,-1,-5,-2,-3,-2,1
-1,4,-5,-4,0,-1,-3,0
-4,2,5,10,0,1,-1,-3
-1,-10,-5,-22,-4,-2,-3,-2
1,0,0,21,0,1,1,-1
5,17,1,-4,-2,-1,0,-1
-5,-7,-8,-6,0,-2,-2,-3
-1,8,1,5,-3,-2,-2,-1
-4,-6,-1,-11,-1,-3,1,-1
3,3,-2,3,-1,0,0,1
-3,-2,0,-6,0,-1,-1,-2
-1,-2,-5,-3,-1,-2,-1,-1
-2,-6,-2,-5,-2,-2,-1,-3
2,-7,-3,3,-1,-1,2,0
-8,8,0,-16,-7,-3,-3,-1
12,11,6,39,9,2,0,-2
