-1,-1,0,0,-2,0,-2,-3
0,0,1,-3,-1,-2,0,-1
-2,-1,-2,-4,-2,-1,0,-5
-2,-1,4,-2,-2,-1,0,1
-1,-2,4,1,1,0,0,-4
-1,-2,-4,0,1,1,-2,-2
-2,-5,1,-2,-1,-2,0,2
0,-2,-4,-1,-1,0,-1,-1
-5,-2,-1,-4,-3,-2,-2,-2
2,0,-4,1,-2,-1,0,-1
1,0,-2,-1,-2,-2,-2,0
-4,-1,-8,0,1,-1,1,-3
-1,-1,2,0,1,0,-1,-2
-1,-1,5,-1,-2,-2,-1,-1
-1,0,-3,0,-5,-1,-4,-2
-1,-1,-3,-2,0,1,0,-2
-2,3,3,-1,2,-1,-1,0
-1,-1,-1,1,-2,-2,-1,0
-1,-3,-2,0,0,-3,0,0
-2,-2,-2,-2,-2,-1,-1,-1
-2,0,-2,-1,-3,-2,0,-1
1,-1,-1,0,-1,-2,1,0
-2,1,-2,-2,-1,0,-2,-1
-1,-1,7,0,2,-1,-1,-1
-2,-4,-21,-3,-1,-2,-3,-3
-2,0,-1,-2,-2,-1,0,-1
-2,-1,-1,0,-3,-3,-1,1
-1,-1,1,0,-2,-1,0,-1
-1,-1,6,0,0,-1,-2,-2
-2,-2,0,2,1,0,-1,0
0,1,-1,-2,1,1,-1,-2
-2,0,-5,-3,-1,-3,-1,-2
0,-2,3,-2,-2,-2,-2,-2
-1,-2,-2,2,-1,-1,-1,-1
1,-2,-2,1,0,0,0,-3
-2,-1,-2,-2,-2,-3,1,0
0,3,-1,0,-4,-1,1,-1
-1,-1,6,-3,2,0,1,0
-1,-2,-6,1,-2,-1,-2,-2
0,-1,-5,0,1,1,-1,0
-1,-2,1,-1,-1,-1,-2,-1
-2,-1,-3,-2,-3,-2,-2,-1
0,0,1,-2,-1,-1,-1,-1
0,2,-3,2,0,-2,-1,0
-1,-1,2,1,-2,-1,1,-1
-1,0,-2,1,-1,-2,-1,-2
-2,-1,-1,4,2,-1,-1,-1
0,-1,1,-5,-3,-1,-2,-2
-1,-1,-2,1,-3,-1,-1,-1
0,0,-2,1,-2,-2,-1,-1
-2,-1,5,-4,0,-1,2,-1
-1,-3,-17,1,0,-1,-1,-1
2,1,12,-18,-2,-1,0,-1
-8,-4,-20,13,-2,0,-4,-2
1,-1,11,6,-2,0,0,2
-3,-2,-4,-15,-2,1,-3,-1
-3,-1,11,7,0,1,-2,-1
-1,1,6,3,-1,-1,-1,-1
-2,2,3,0,0,-1,-1,-3
2,3,3,2,-1,-2,0,-1
33,-4,0,-12,-2,-3,-3,5
-45,-5,-7,-4,-1,2,0,-3
-12,0,-1,-2,2,7,11,-3
4,2,15,0,-2,-1,27,4
-6,-7,-37,5,0,-1,-4,-4
12,-2,2,-1,-2,-2,-7,-1
1,0,-5,-3,3,0,1,1
-10,-3,6,-20,-5,1,-7,-4
-2,6,8,-10,-3,-3,0,0
10,6,6,37,14,7,8,3
-6,-7,-3,10,-7,-5,-7,-2
5,-3,-14,13,3,-1,-8,0
-9,1,9,0,-2,-1,-2,-1
8,1,-13,-29,-5,-2,-7,-1
7,3,-1,-22,-2,-4,-3,1
-7,7,8,30,6,0,-4,-2
-14,-29,-1,-10,-6,-3,2,-3
0,-2,10,-2,1,-1,1,0
23,3,-9,-1,-1,-1,-2,-1
4,-3,-3,-9,-4,-3,-4,-2
-11,33,-3,0,3,3,-2,-3
8,-43,3,-11,-3,-4,-2,0
-2,-5,-3,-1,-1,2,-2,1
-7,6,-2,16,2,-1,-4,-1
-2,5,-3,-3,3,-1,-1,-2
-4,8,0,10,-7,-3,-2,0
6,-2,0,-18,-5,-1,0,-1
-2,-8,-2,5,-2,0,0,-2
-6,-7,2,5,2,-3,-1,-1
-1,5,-4,-18,1,1,0,-2
-9,-12,-7,4,-3,-3,-2,-2
2,4,9,-10,-2,-1,-2,0
-2,-6,-16,5,0,-2,-2,-2
10,2,-21,-12,-7,-1,-1,1
-23,3,0,0,-3,-2,-2,-5
-2,-10,10,-3,1,-1,-4,-4
-1,3,-10,-15,1,-2,0,-1
-4,-19,5,-8,-1,-3,0,0
-1,1,20,15,0,0,1,1
44,26,-6,-10,-1,-1,-3,4
-70,-13,-38,8,-7,0,-1,-6
1,-17,-18,-16,-3,-2,-2,-4
11,17,16,-18,-5,-3,-2,-1
-6,2,9,-3,7,3,0,-3
24,14,54,24,-3,0,1,5
0,7,-22,6,-3,-2,-1,-2
-5,-8,-48,5,2,-3,-4,0
1,-9,10,-22,-7,-4,0,0
-1,1,37,-6,2,1,1,1
-12,-1,-28,-5,-6,-2,-1,-3
1,-6,-4,7,2,-4,-1,-3
4,-4,-13,23,3,1,0,1
10,-6,9,-6,-1,-1,0,2
-10,-13,1,1,-4,-2,1,0
10,28,3,-4,-1,-1,-1,1
-11,-21,4,-11,-6,-3,-2,-4
14,-1,-62,1,-2,1,-1,2
-29,-12,32,4,1,-3,-1,-3
6,16,53,5,2,-1,-9,-2
-33,-43,-18,0,-9,-2,7,2
15,8,-21,-16,3,0,-5,-4
9,38,20,-6,1,1,3,0
-13,-19,-41,11,-6,-1,-7,0
-7,-24,-54,-2,0,0,-2,-1
7,-32,14,-5,-2,-8,-3,-8
7,-5,-21,-16,-1,-1,1,3
-5,24,39,-6,-4,0,4,-3
10,3,20,-3,3,-1,-10,1
10,-9,-35,6,-3,1,1,1
10,10,40,11,-2,2,-17,-6
21,-9,-14,-12,-1,-2,20,7
-34,-11,-13,-11,2,1,-2,-6
0,27,22,13,3,2,-4,0
2,10,50,11,0,-4,-8,-6
0,-13,-33,-7,8,8,1,8
-24,-12,-30,-5,-6,-6,-2,1
0,-42,18,-14,2,1,3,-4
21,28,11,22,7,1,4,4
-45,-32,-33,-19,-10,-2,-15,-11
17,30,38,-1,3,3,25,10
8,-18,-16,7,-6,-4,-11,-8
-34,39,28,-18,-1,-2,5,2
9,-40,17,28,3,-4,-25,-5
5,48,9,-13,-6,-2,25,0
6,69,24,11,3,-3,12,-8
8,-73,21,-18,-2,5,25,11
-20,-14,-57,-11,-9,-1,-38,-4
11,-9,126,19,10,1,-4,-10
5,-38,-60,-16,-14,-6,64,8
7,-13,3,-1,4,-2,0,-7
-6,37,-3,-3,1,-2,7,6
13,-18,-8,2,1,1,-34,-14
-30,8,28,2,-4,-5,-17,-1
-12,18,11,-49,-11,-11,-24,-1
22,63,41,55,16,3,30,5
4,28,33,-20,-4,-6,-40,-5
3,2,49,34,6,6,31,28
1,-28,-52,-12,-5,0,-6,-16
24,4,11,16,-1,-1,5,7
9,-23,-39,-2,-7,-19,-43,-22
69,-11,33,49,12,16,24,21
-46,-57,-39,-20,-20,-4,3,-11
74,-25,-37,-40,-7,1,-8,-5
-38,54,-32,0,2,2,29,-2
-26,-26,-32,-47,-10,-21,-68,-30
84,-27,-6,-6,26,4,-15,23
-30,-72,35,19,-11,-5,27,0
9,41,-62,-27,-8,4,23,0
5,24,-16,42,6,7,-20,16
-1,124,48,11,1,-6,-3,-5
-45,-46,-58,8,-3,16,-17,-9
17,84,53,-99,-5,-6,7,13
32,-29,-53,45,5,-6,-10,-8
-93,-70,62,67,-16,-6,-17,-38
97,-6,-3,-15,2,1,6,13
-20,-54,28,-18,4,0,-3,-2
8,-44,15,-63,1,-3,-31,-1
32,-58,-16,-11,5,-1,42,-7
51,84,62,-2,7,-10,-24,-6
-39,-15,-83,30,-16,4,34,30
-44,22,2,-52,3,1,-36,-21
-18,-1,-25,35,-10,-6,-4,10
-92,5,27,-73,18,0,12,-5
100,10,47,90,-6,-5,14,28
-1,-10,-16,-30,-29,-11,-17,-22
22,91,-51,-19,5,10,-11,-9
69,-24,64,-14,-7,-9,-3,-16
-50,25,13,-47,17,4,-7,15
16,50,127,26,-12,-2,19,-1
-33,-37,-64,17,1,-9,-19,-16
-24,39,38,-73,8,13,18,2
127,-20,6,41,3,1,-12,-2
-33,50,38,17,12,2,21,-6
47,-30,5,59,-3,3,-5,13
-10,-7,-17,10,-9,13,31,-1
-32,-73,-22,10,-4,-29,-22,-1
-12,17,-82,-75,3,5,-2,-20
4,91,29,-26,6,-5,3,20
-92,11,-38,-1,-3,-5,43,18
-10,72,65,-65,-23,-1,-21,-21
-40,33,-29,31,2,7,-2,5
97,60,62,-4,10,4,2,12
-43,71,37,48,-11,-8,-51,-24
-48,-111,-36,-37,8,7,10,-12
70,27,10,-49,-16,4,0,3
-23,-32,-51,-80,-10,-4,-23,-11
-28,-54,-32,32,14,-13,22,7
111,-61,-20,-26,1,3,-3,6
25,17,-8,24,-1,-6,16,-3
0,-77,39,-15,-17,-2,-23,-3
3,14,-84,-31,-5,-8,-6,10
12,-8,-7,0,-6,-5,-21,-30
-33,-10,42,20,17,11,16,6
20,70,-55,-13,4,7,-3,-16
40,-38,26,-16,-17,-16,-25,16
-37,69,-1,45,24,24,-75,-32
91,-86,-17,-15,-34,-32,102,58
21,-6,53,7,10,5,25,-8
-30,-56,-39,50,23,17,-63,-16
1,88,21,127,19,1,8,15
36,-49,49,-83,8,9,-21,-5
-2,-94,-10,-13,-13,5,-19,-13
52,23,8,-55,-25,-24,0,-1
-82,13,36,3,4,2,43,19
-49,51,24,-26,2,-15,-79,-24
37,19,33,87,32,15,61,13
-51,-94,4,-50,-27,-8,-37,-49
32,101,6,-16,-7,5,41,22
84,-77,-26,3,-15,-10,-13,24
58,-16,42,-11,4,-2,-39,-10
-24,1,-47,-17,-6,17,62,-8
-29,-16,34,68,41,4,-57,-20
35,13,-26,8,-12,-3,29,13
-65,89,-15,56,4,0,11,-3
77,-80,63,46,1,-4,15,19
-88,25,-31,-29,-2,-1,-6,-19
65,-102,-18,34,-15,-8,-9,-23
-32,74,-6,-116,-13,2,-32,4
45,24,52,110,2,-6,27,15
39,-57,24,-36,-31,-17,-8,-16
-113,89,-59,16,52,28,-2,17
103,-75,-30,9,-26,1,9,-1
8,81,26,-112,-28,-34,-22,0
121,-74,-69,-16,11,0,33,13
-122,100,39,8,5,14,-6,-48
-9,46,2,45,-6,-4,-36,43
35,-54,-41,-10,-11,-10,20,-23
-21,10,-29,-128,-30,-8,-20,-41
-30,-6,28,92,18,16,45,54
65,49,6,-23,18,10,13,6
60,77,11,-35,4,-2,-23,-10
83,-31,-58,-31,-27,3,10,-5
-16,5,24,-30,-29,-5,-84,-45
-69,111,24,44,50,-3,8,29
111,-24,1,70,-11,11,17,22
37,-105,7,-46,-25,3,18,-2
-17,13,-78,-15,4,10,-10,-16
59,-66,52,-30,-3,-17,6,37
18,-41,-28,22,11,5,-47,-36
16,1,-8,16,4,7,88,47
115,26,2,29,-8,-12,17,25
-45,-104,12,-29,4,4,-20,-26
-60,61,27,9,36,31,19,23
-16,-81,2,-7,-50,-26,-21,-1
-22,25,25,-106,-14,-19,-11,-55
69,53,-9,10,21,-4,15,16
33,29,19,19,2,6,34,43
71,127,39,125,15,-5,-43,12
-40,-18,-33,-92,9,-2,-5,-30
48,21,-1,62,-15,-4,17,-17
-128,55,-11,-39,16,19,-58,-15
88,-8,-8,92,31,9,49,28
34,-50,26,-68,-19,-17,-54,-10
50,-62,-24,85,4,-6,5,1
-17,-15,33,46,21,6,-3,-18
80,-15,-36,-76,-28,-6,36,40
57,8,62,24,-1,12,-57,-23
-104,-14,-62,-69,-5,-22,-17,-23
-26,-20,-33,-70,-20,-15,-7,-12
-128,23,22,54,38,16,-56,-30
105,-24,16,8,-4,-24,70,80
24,-19,17,-74,-31,20,-45,-63
53,16,1,63,21,-22,26,33
-119,11,-2,-62,38,32,-29,-43
-36,1,1,60,-23,-24,59,56
66,-7,-10,-87,-25,14,44,31
-59,10,0,71,11,10,-52,-31
-62,-5,6,-67,-2,13,1,-12
-86,-21,11,52,33,15,7,-6
5,4,-3,51,-16,-32,-6,-18
41,-10,-28,-17,0,-20,-58,-29
16,-9,34,4,-1,-8,23,5
-54,6,-7,42,17,35,36,34
52,1,-27,41,-35,-16,-31,-22
55,-1,-11,-115,-31,5,54,16
-5,-3,-2,59,6,-10,-68,-31
-67,1,-4,-31,10,-10,41,41
-107,-6,-10,-19,6,18,-13,-26
-22,-4,-19,-24,-21,-13,41,19
-75,7,-1,-54,-12,-38,-84,-40
-28,-10,-14,101,29,20,48,26
3,-6,-13,-80,-14,-14,10,18
-8,1,71,111,64,24,-26,-23
39,-1,3,-113,-40,19,46,40
87,0,12,64,27,-20,-34,-28
65,-6,5,-26,25,17,50,51
110,5,-10,-57,-25,-6,26,-25
-47,0,11,52,39,28,-58,-3
41,-11,-3,-50,-30,-25,-1,-24
-84,0,7,-3,-22,-16,23,15
-72,-1,-12,-64,-19,-34,-31,-30
-17,-6,-21,-39,-20,-8,6,-17
0,-2,-84,-74,-39,-3,-56,-51
25,3,0,-13,16,-5,-26,0
-16,0,43,55,-18,-9,72,61
1,1,-19,-6,-7,-21,16,-31
66,1,3,-18,-11,0,-11,14
-128,-3,22,39,31,42,-38,-65
3,-2,30,59,17,-4,-4,15
38,-4,-3,-45,3,-3,47,-10
-52,4,-33,9,-4,-16,43,57
-67,-1,30,79,-20,-11,7,1
-57,3,12,55,37,13,-75,-24
-44,-1,16,8,-2,5,44,18
-69,-1,-29,-69,-13,-7,-55,-62
94,1,-18,13,58,29,51,47
-74,2,-10,-57,-21,4,-4,-3
72,1,-6,14,-22,-26,59,33
-15,1,21,-16,8,8,-34,-33
62,-3,-2,-21,4,-1,-51,1
-107,-2,-29,-57,-6,0,-6,-71
19,-3,-8,52,18,7,65,74
6,1,40,46,-4,15,-40,-39
-22,3,-4,-32,-24,-7,24,9
26,-3,-4,5,4,13,60,58
-29,-3,-18,-85,-6,-4,-61,-20
34,-1,16,51,10,-16,19,-5
-69,-5,7,26,1,4,12,-2
54,-3,-4,25,-2,-2,-47,-15
68,5,14,12,15,7,52,31
31,-1,-15,-66,-18,9,-64,-28
77,2,20,17,36,14,6,-3
63,1,-13,-59,-17,0,39,68
-25,-4,-14,13,-15,-9,-74,-52
-59,-6,10,-25,17,-14,-3,-26
-122,1,-3,-30,-19,-22,59,47
24,-2,-22,-13,-15,9,-10,1
-4,-1,-8,-4,-20,-5,-64,-22
-1,-4,13,24,8,6,7,6
61,1,-25,-41,-9,-13,-16,-14
4,-7,42,64,19,10,0,3
59,0,17,66,7,4,3,13
60,-1,-7,-15,-7,10,14,1
15,-2,-31,-51,-9,-10,-10,-11
6,-6,-17,-27,-11,-6,-8,-8
8,-5,11,-5,9,-3,-3,-4
-14,3,1,-12,-10,5,2,7
2,-2,17,37,-8,-4,15,10
7,1,-28,-31,-2,-6,-2,-10
-33,-1,5,5,-3,-4,-16,-8
-25,1,10,-7,2,4,4,2
-9,2,-57,-35,-15,-13,-36,-14
-2,-3,8,-22,-5,-1,5,-3
67,-1,10,10,3,10,-4,-7
-12,2,-1,-10,-1,-5,14,14
1,-4,-3,-8,-7,-10,-19,-16
-3,-2,-3,-12,-2,-6,2,3
-11,4,-11,-5,-2,-1,8,1
21,1,1,-1,5,2,-1,3
-49,1,13,-7,-5,0,-6,-12
-4,3,-14,-12,2,1,6,4
-37,-49,1,-18,-5,-2,2,-2
27,-73,2,-6,3,5,8,5
-10,-36,-2,-16,-3,-3,1,-2
0,17,10,3,-3,0,-5,-3
-24,44,-8,-7,-5,-7,4,0
0,31,-1,3,-2,4,17,4
17,-8,2,-6,0,-2,4,3
-9,-24,-5,-26,-4,0,-13,-7
-19,-6,2,12,0,4,1,-1
-5,4,-4,-3,-7,0,12,11
26,1,9,4,6,0,9,-5
6,34,-5,-10,-5,-5,-4,-2
9,73,6,15,5,-4,7,10
-52,113,-3,-4,3,0,-10,-6
-5,127,0,-2,0,5,-8,-1
2,67,-1,-3,-18,-3,-3,-4
2,38,-3,-4,7,-1,5,-1
17,-18,-2,2,1,1,-4,0
-6,-12,6,9,-10,-3,-7,-5
0,-78,-2,-10,16,5,8,-1
-20,-98,6,-11,-3,3,1,-1
21,-91,0,11,3,-1,0,1
-15,-63,4,2,-8,-2,-4,-5
2,-61,-9,8,-6,-1,1,2
-7,-41,-6,-15,-5,-4,-1,-3
8,-42,-3,-6,-2,-3,0,3
1,-32,-2,-3,-1,-2,-3,-8
-19,-4,-2,2,2,0,0,-1
-8,-11,-3,-2,1,1,-3,-2
19,22,1,0,-8,0,1,-3
17,7,-2,-4,-5,-5,0,5
3,2,-1,-3,5,-1,-3,-3
-18,-26,-4,4,-1,-3,1,-4
