-2,-2,-1,-1,-2,-1,-1,-1
-1,-2,5,-1,-3,-1,-1,1
1,0,-2,2,-2,0,-1,-1
0,1,-15,-3,-2,-2,0,0
0,-1,-12,-1,2,2,0,0
-3,-5,-23,-3,3,-1,0,-2
-1,0,12,3,-1,-2,-1,0
-1,-1,5,1,-1,1,1,0
-1,0,1,2,-2,-1,-1,-2
-1,1,6,1,-2,-2,-1,1
-2,-2,-9,-3,0,-1,-2,0
-1,-1,7,-1,-1,0,-3,-1
-2,0,1,0,-2,-2,-3,-1
-1,-1,4,-3,-2,-1,-1,0
-2,-2,-5,-5,0,0,-2,-2
-1,-4,6,0,2,-1,-2,-2
-1,-3,0,0,2,0,-1,-3
-1,0,2,-1,-3,-2,-1,0
-1,0,-5,-1,-1,-1,0,-2
1,3,9,-1,-3,1,-1,0
-1,-2,-11,-5,-1,-2,0,-1
0,1,18,3,1,-1,0,-1
-2,-3,-26,-3,-2,0,1,-1
-3,0,3,-3,2,-1,1,-2
0,-1,9,3,-1,-1,-2,-2
-1,0,1,-2,-3,-1,-2,-1
0,0,0,-1,-1,-1,0,0
-1,-1,7,-1,-2,-3,-2,-1
-2,0,-2,-4,-1,-1,-1,-1
-4,-2,-3,0,-1,-1,-1,-2
0,-1,2,-1,-2,-2,-1,-1
0,0,-10,0,-1,-2,1,-2
1,0,2,1,-1,-1,0,-1
0,-2,0,-1,-1,0,-1,0
-1,-1,3,-2,-3,0,-1,-2
-2,-1,-2,-1,0,-1,-2,-1
-1,-1,5,-1,-1,-2,-3,0
-1,0,6,2,0,-1,-2,-2
0,-3,-24,1,0,3,-1,-1
0,0,5,0,-3,-2,-2,0
-3,-6,-20,-6,1,-2,-1,-1
1,3,9,-1,-1,0,-1,0
-2,-1,7,2,1,0,0,0
2,-2,0,1,-2,0,-3,-1
0,1,0,2,-1,-1,-1,-2
1,-1,-8,-3,-1,-1,-1,-1
-1,1,11,-3,-1,-2,-2,-1
-2,-4,-12,0,0,-1,0,-2
-2,1,1,-5,-3,-1,0,-1
0,-1,-4,-3,-2,-2,-3,-2
0,1,12,-1,-2,-2,-2,0
-1,-7,-38,-5,0,0,-1,0
-2,0,6,7,-3,-1,-2,-2
-2,-4,2,0,-1,-1,0,0
0,-4,-6,-1,3,0,-2,-1
1,5,9,1,-2,0,1,0
-2,-2,-5,-9,-2,-1,0,-2
-2,-2,0,11,2,1,1,-1
-5,-1,5,-5,-5,-3,-3,-2
-8,5,5,0,-2,-1,-3,-2
16,-16,-5,-8,2,2,0,4
-2,1,-7,-13,-5,-2,-3,-2
1,-2,-13,3,-3,0,1,0
-8,1,8,5,1,-2,0,-3
-7,3,-17,-7,-7,-3,-2,-2
2,1,9,-1,5,0,0,-2
6,-5,0,-1,-2,0,0,1
14,16,-31,-3,-3,0,0,-1
-33,-35,6,4,0,0,-2,-3
-1,-3,1,-4,-4,-1,1,1
5,4,1,2,1,0,1,-1
15,4,30,4,4,0,0,2
3,-31,-6,0,2,-1,-2,-2
-6,6,-3,1,0,-1,-1,-2
-8,-3,15,-3,-1,-2,-2,-1
-12,0,3,2,-2,-2,-1,-2
17,28,10,7,2,0,0,1
1,-12,7,-3,-5,-5,-2,-1
-3,-47,-15,5,-2,1,1,4
3,-2,22,6,3,1,0,-1
14,-37,-21,1,1,0,-1,2
-37,10,-5,1,0,-3,-3,-6
14,33,2,-5,0,-2,-2,-1
-10,-53,-22,-7,-8,-2,0,-2
-1,20,5,-2,1,1,1,-4
6,-30,-2,5,2,3,1,-1
-6,4,18,-4,-1,-2,3,5
6,11,-2,2,1,-2,-2,0
-5,8,4,-1,-4,-4,-1,4
34,3,1,-3,-4,-2,2,-2
-11,0,0,5,-1,1,-5,-4
-7,44,8,-4,-2,-2,-1,-2
-1,-5,-4,4,-2,-3,-3,-4
-18,3,-22,-11,-2,-2,-8,-3
12,-9,-42,-16,2,-1,6,1
20,-14,3,1,-6,-1,-2,4
-18,11,-5,2,1,-1,-10,-10
5,-5,32,8,1,2,11,6
-2,6,4,-12,-5,-2,-5,-4
7,-18,-20,-14,-3,-2,0,-2
9,12,25,6,0,2,2,1
-8,5,-26,-7,7,2,-6,-3
52,15,-10,-6,-1,-2,-2,2
-70,-13,-17,-2,0,-2,-2,-10
-15,-33,-49,-16,-5,-2,-2,-4
-5,3,1,7,1,-3,3,2
-16,7,56,14,0,0,-3,-2
49,13,-9,-1,4,4,7,2
-29,1,-1,-2,-2,3,-4,-1
-6,11,47,-3,-1,-3,4,-5
-14,-34,-86,-5,-4,-4,-17,4
19,-15,56,-7,1,-1,19,3
-19,19,48,6,5,1,5,3
40,32,15,4,-2,-3,-12,0
-54,5,-22,3,1,1,6,-5
10,-2,32,5,2,0,-11,-4
34,23,11,9,3,-1,1,5
-47,-67,-2,-6,1,0,-10,-2
18,27,-29,2,2,1,-9,0
-22,1,-45,-27,-14,-4,0,-1
22,2,-15,-10,-4,-4,-4,-7
10,0,-26,13,0,2,1,3
-20,19,122,15,6,4,14,0
-44,-50,-93,-19,-10,-6,-5,-6
15,5,87,-4,3,-2,-3,-11
-3,23,-16,2,-3,1,2,7
18,12,45,-19,-9,-10,-6,-8
40,45,-20,16,2,0,-5,1
-16,-14,-39,-1,-10,-4,-4,1
8,-52,6,-12,-2,-1,4,-6
5,62,4,12,4,-4,6,-9
-26,0,31,-9,3,-1,4,0
-9,7,-49,-12,-6,-1,8,5
41,23,-26,-1,-4,1,-53,0
-51,-6,24,2,-1,-3,53,-14
16,56,38,8,5,2,16,12
-15,7,41,8,1,1,7,4
19,3,-24,-9,-3,2,8,8
16,2,-31,6,2,-2,-23,-5
19,18,28,2,-6,-4,-18,-11
-17,-12,16,-18,0,-1,7,3
-2,-6,17,17,4,-3,2,-9
23,-6,30,9,6,10,-4,18
-27,-23,26,9,0,-2,-2,0
13,-7,-89,-31,-6,-2,0,-3
-26,9,90,-6,-6,-9,16,-8
33,46,-77,-16,4,6,-3,13
-44,-35,49,16,2,2,-6,-5
-6,10,44,-2,-7,-5,-22,-11
13,34,-42,-3,0,1,8,6
5,-46,2,-5,-2,-1,18,3
8,-1,29,-15,-4,-2,-6,-4
37,25,45,15,8,4,-2,1
14,79,63,12,3,8,-8,3
-55,-53,-65,-9,-9,-9,-9,-27
35,1,35,-25,10,-5,-1,8
-15,4,29,37,2,1,12,19
19,16,95,-4,-11,-5,-2,0
3,-70,-64,-11,-5,-3,-16,-3
-19,2,0,-17,0,1,-1,-8
-14,-17,38,1,-2,-9,-9,-8
12,-17,53,-34,2,8,15,20
-60,-5,76,45,-8,-4,-18,-8
60,-1,-35,-12,4,0,12,1
-49,5,38,15,-6,-5,-31,-6
-10,-27,-34,17,4,0,23,-5
85,-3,-25,-36,6,5,2,2
-64,35,-33,17,-8,-4,-7,1
0,-17,7,11,-1,1,18,-10
-49,-27,-64,-8,0,-3,-14,-6
39,28,-17,-17,-2,-9,-7,6
-46,4,15,24,-1,1,-18,-14
127,-28,-30,-21,-1,4,21,7
-44,55,-14,11,-2,0,1,-9
-7,7,65,-22,-3,-4,-10,6
49,-24,-6,37,-1,-2,3,2
-29,12,96,-8,-4,-2,-19,-6
33,-26,-104,-38,-7,-6,-4,-10
-75,-13,120,33,4,12,-9,-9
74,5,39,-35,12,1,7,-10
-8,19,0,40,11,4,-4,20
-58,-104,10,23,-8,-2,23,4
26,2,-96,-27,-16,-10,11,16
23,-6,5,-25,-16,-13,-29,-29
20,-9,-42,4,16,14,22,19
20,26,91,7,2,-9,-38,-13
-50,-72,-66,-10,-6,0,11,7
-9,-32,-101,17,-5,-5,9,5
-5,-56,-13,-41,-8,-3,-14,-23
51,-21,61,15,6,-2,-12,4
-15,13,127,38,14,1,11,-6
-25,51,-68,19,-8,8,38,22
-23,48,-90,-3,-8,-8,-1,19
100,62,-5,2,0,-1,-27,-19
-46,80,107,-18,0,-8,-14,-41
1,-45,30,-20,5,11,6,19
-11,67,8,-11,-3,-6,21,-16
-100,-31,2,0,5,7,27,26
114,-6,-4,-30,-1,-9,-80,-20
8,-66,33,23,-4,-1,45,20
30,19,15,9,-7,12,16,-5
-23,59,-79,-8,-1,9,-23,-12
8,34,-5,-2,7,-7,38,15
-25,-65,75,-2,-4,-13,-11,-15
58,-7,-105,9,7,2,-5,3
44,52,-21,-11,1,-8,-2,-3
103,6,33,3,-9,7,-14,9
-69,-52,-7,-38,-12,-9,-6,-27
2,111,13,-9,10,-12,-1,-3
59,-67,82,48,11,8,0,14
-17,-28,-116,-32,-16,2,26,-6
-16,127,25,15,3,4,-15,13
2,-48,44,0,-8,-2,2,-4
-4,-101,34,4,1,0,-6,5
-13,-27,-13,47,0,-1,2,-16
69,-10,33,-3,14,-3,-41,4
38,-52,18,-65,-19,-6,0,-2
20,17,43,59,19,-12,-2,-19
-27,-26,44,-47,2,6,-18,9
61,34,-49,70,2,8,32,18
-7,80,110,18,0,-10,-8,-7
-42,-40,-128,-53,-35,-16,0,-3
53,-67,22,51,24,19,-2,10
-47,-6,3,-16,-19,-4,-18,-8
-37,-101,4,-43,12,7,-13,-5
-26,-22,9,38,-12,8,7,0
-65,66,-87,-15,-1,-12,3,-3
75,45,20,-49,3,-1,-11,-10
13,-34,-17,26,-2,-1,12,3
-6,6,-20,-21,-3,6,8,-31
-10,-36,41,3,-12,-3,37,30
-5,-41,8,27,5,-5,-25,-9
-6,95,20,-17,8,1,-1,-1
47,20,1,9,-7,-3,14,-6
99,10,44,34,-1,10,-6,7
-88,-53,-33,25,-2,-13,11,1
10,-43,-33,-32,1,7,-18,-1
31,28,-18,-16,1,-5,-1,-26
57,36,77,17,10,5,16,40
-35,12,28,-3,0,2,-28,-41
36,-96,-46,48,-1,-3,18,34
-9,12,50,-55,-4,0,1,11
-78,-36,-121,-2,-8,-4,-1,-19
5,37,27,-9,-2,11,-21,-17
38,56,10,-1,-7,-16,6,-6
-54,-68,-7,-31,-1,-1,-16,18
-43,45,5,3,9,-3,-17,-38
-76,-120,3,29,-2,-12,7,31
-79,13,5,-43,1,4,-13,-14
97,70,18,90,30,19,9,12
-18,-64,17,-15,-17,-9,1,-21
119,85,-46,-32,15,5,6,39
-78,29,47,38,17,7,-16,-3
80,-92,-88,-78,-30,-37,-13,-60
61,13,37,41,-6,3,9,39
-52,110,-17,-17,2,0,4,-32
121,-119,-1,-31,-21,-12,-19,35
-58,51,47,11,-14,-3,6,-16
67,5,-29,-36,-2,-4,-59,-39
10,-1,3,-6,0,4,60,15
23,61,-53,-7,2,8,-17,-11
-100,92,88,39,16,6,37,22
71,-105,-96,-30,-27,-13,-31,-17
2,98,113,1,10,8,8,-10
-70,-99,53,21,-8,5,-10,4
92,41,-26,-24,-11,0,36,40
-38,63,14,27,2,-6,11,23
70,-53,-12,-70,-16,-7,-66,-78
28,52,-62,35,-7,-5,36,26
-75,55,-36,-43,8,2,-20,-24
-24,9,-46,-69,2,3,41,29
-73,-41,-45,3,-17,-4,-6,3
-78,127,26,-11,10,1,-47,-51
63,-43,-7,0,10,21,-2,44
103,-62,3,-17,-21,-12,27,10
66,65,90,34,19,-1,51,62
-27,99,-80,-54,-6,-13,-43,-27
70,-128,-18,-47,-40,-29,-6,-25
-99,127,118,89,27,22,-37,-41
75,-2,-79,-21,-31,-15,-51,-31
28,-38,46,40,15,14,78,65
-10,127,57,-22,16,-4,-43,-13
104,-100,-15,20,-18,-4,20,-3
-28,7,-36,-88,-3,-2,-51,-48
33,-25,40,101,13,-2,62,47
127,37,13,45,14,-4,-8,17
-121,-39,5,1,4,12,14,-8
-31,-69,-36,-20,-8,-14,-54,-15
-4,-91,-19,11,-24,6,2,-67
-128,47,94,-3,-8,-5,-13,-17
48,-37,-52,-13,30,5,-34,6
51,10,65,38,-2,7,93,95
93,115,64,9,14,-8,-63,2
-11,-53,-41,53,-3,15,27,-27
-121,127,39,-24,10,10,24,37
110,-57,8,53,6,-5,15,3
-59,20,-36,-46,-6,-5,12,20
38,56,32,-51,-5,-9,-82,-46
-47,1,-62,6,18,7,31,-21
88,48,75,11,6,20,58,65
-30,35,-5,-46,-2,-5,18,15
-116,-76,-73,-93,-8,4,-27,-22
22,-17,44,40,23,-12,-39,-66
1,-27,100,-18,-19,-12,20,-8
-83,-55,-85,-44,-2,6,-15,-32
12,-21,36,97,30,9,81,113
109,-6,2,-38,-25,4,-38,-34
-90,20,-37,31,40,20,-12,0
2,-45,29,-35,-26,-19,-56,-60
77,-17,-18,40,17,29,103,82
67,26,-51,-46,-34,-15,-30,-1
-75,-11,-12,108,35,2,-14,-8
19,-15,30,-5,-26,-9,-33,-12
-95,-8,-16,-63,-13,-27,-53,-53
44,1,87,-24,-21,-9,111,88
-73,2,-55,-86,5,36,-42,-22
-16,-15,-67,-55,-27,-20,4,-25
24,9,96,43,19,13,-7,15
-127,-8,-83,-27,-14,-29,-39,-54
51,-4,28,-66,-6,1,13,65
52,1,75,60,-13,7,0,-29
-111,-13,-2,54,16,5,-6,-24
124,6,29,70,3,3,46,42
-88,0,10,-65,-2,13,-38,12
110,-8,26,81,-8,-20,9,-36
52,-2,-32,-1,-6,2,67,35
-100,-3,-2,-6,18,5,-24,-10
86,0,6,52,0,5,0,-20
30,-11,-14,14,32,17,-14,32
7,-2,-35,-90,-6,-28,-93,-64
16,3,12,-25,26,17,64,60
42,-1,28,45,-9,3,87,38
44,-9,-18,-5,10,1,-96,-61
62,-2,-17,-51,-8,5,-40,-11
68,3,-86,-27,-13,-9,56,91
-66,-1,24,-83,-54,-45,-92,-97
-60,-2,-5,-33,-10,12,39,28
-64,-8,101,98,25,2,-79,-43
16,-2,85,-74,-16,-4,22,8
-62,-4,-49,44,6,9,21,-2
46,-9,-30,62,8,-41,-54,-74
15,-3,-13,-47,-17,24,75,38
-70,3,-38,-52,-2,8,-80,-27
40,0,-1,48,16,-17,11,-2
-124,1,26,-60,8,22,36,49
33,-3,-32,-10,-12,-27,15,0
13,3,32,43,5,10,6,1
103,1,-81,-116,-24,-12,-115,-93
83,-1,61,96,33,10,98,58
13,1,-14,0,-10,13,-7,-14
-82,-3,23,36,8,-23,-39,-37
58,0,12,-7,5,14,53,54
-75,-7,24,-87,-30,-13,-22,-15
127,1,51,85,45,21,-26,2
73,-1,127,40,12,5,4,2
-20,1,-77,-77,-11,1,-43,0
74,-2,-1,32,17,7,87,28
48,0,11,-38,-14,0,31,33
-78,1,-85,-100,-17,-19,-128,-123
103,1,5,106,26,-2,104,89
-14,-2,106,-32,-9,11,-5,11
43,-1,-32,-64,-3,-7,-53,-18
104,-4,55,37,-3,-8,12,-43
-13,-3,16,-9,-19,-21,-58,-38
-94,-3,-38,47,27,18,-12,-42
94,-6,74,4,26,2,106,109
29,-1,-38,-45,-30,-20,-75,-32
-38,1,102,16,1,14,94,63
127,3,-11,-34,6,-4,-47,-24
-55,-3,0,39,7,6,-47,-54
-103,-5,84,27,4,6,-31,-19
21,-4,-10,14,12,5,50,32
-30,0,-22,-54,-13,5,31,43
-52,-4,-21,-56,-20,-6,12,-6
5,1,7,-4,-5,-11,-40,-20
11,-2,-39,26,-7,-5,-23,-24
-20,0,52,-16,-6,-4,-6,4
-33,6,-38,7,-14,-7,-12,13
-128,-2,-7,25,24,42,127,56
71,-4,-13,-43,-36,-23,-27,-22
106,1,14,9,-9,8,12,27
-43,-4,-103,-91,-26,-36,-54,-18
-31,1,37,-33,-5,4,-27,-3
43,1,11,14,21,4,-17,-48
23,-1,30,73,37,20,57,68
-98,0,23,-70,-27,-12,-18,-1
-25,-2,-43,98,16,-2,52,31
62,1,19,-2,-9,-9,-47,-44
-19,-4,-20,-57,3,2,-71,6
54,-4,21,-8,-8,-9,26,3
23,-1,15,-16,-5,-5,-27,-39
-86,2,-6,-7,7,12,29,59
-44,0,-44,-19,-19,-5,-7,-8
-34,3,13,6,-4,-4,-15,-21
12,-4,-33,-33,-3,-23,-80,-39
39,-1,36,12,11,23,-5,-36
53,1,-52,-65,-36,-31,50,42
0,0,-40,127,15,10,-25,-24
-57,0,25,26,-2,-11,13,-9
-98,-2,-71,-70,-12,7,-1,-13
88,-2,47,114,28,12,-13,-3
-3,2,-43,-23,-24,-2,24,2
64,-1,3,-59,-2,1,-37,19
-98,1,24,24,5,-2,18,-6
