-1,0,6,1,0,0,0,-2
3,3,11,3,1,0,-2,2
-9,-19,2,-10,-1,-2,-1,-1
-3,6,6,1,-3,1,0,-1
-2,-3,-4,-1,-3,-3,0,-1
-8,-4,-13,1,-4,0,-1,-1
-1,9,-19,-9,0,-1,-1,0
10,-3,-7,10,1,0,-1,0
-1,-8,3,-6,0,-1,0,-1
3,5,11,-4,0,-2,-2,-1
-2,16,-3,-1,-6,0,-1,-3
-5,-21,4,-9,-3,0,-1,-1
2,-13,-5,2,-3,-1,-2,-2
-1,-9,-3,10,1,-1,-2,-1
-1,5,0,3,1,1,0,0
-1,6,10,-11,-4,-3,-2,0
-1,3,-2,-2,-4,0,0,0
-2,-7,0,-5,0,0,-1,-3
1,-4,-1,1,-1,-3,-1,-3
-1,6,3,4,1,-1,0,-1
2,0,-4,0,1,1,-1,-2
-8,5,1,-1,-2,-3,-3,-1
-1,-16,6,5,1,-1,1,0
7,2,8,-1,3,-2,-1,-2
-4,2,-16,-3,-6,-2,0,0
15,3,4,-1,3,0,-2,0
-16,-22,0,1,-2,-1,1,-1
4,3,0,-1,-1,0,-2,-2
-3,15,18,-10,0,0,1,-1
-10,-2,-23,25,0,1,0,2
7,10,-6,-5,-1,-3,-4,-4
-2,3,6,0,0,-2,-1,-2
-11,0,-18,5,-1,-1,-3,-4
0,2,6,-16,-1,-1,-2,-2
-4,1,-1,-1,-4,-1,-1,1
6,0,-6,-6,-3,-2,0,1
-1,-7,-3,0,5,-2,-1,-2
0,1,6,-5,-3,-1,-1,-1
-4,-7,-3,5,3,-1,-1,-1
-9,13,3,-8,1,-3,-1,-1
9,-17,-17,4,-4,0,-3,0
0,-26,2,-6,-4,1,0,-2
9,19,9,-6,0,-2,-1,0
-3,3,5,4,-2,0,-1,1
-4,-4,-25,-9,2,1,-2,0
16,12,11,13,-1,-1,0,-2
-1,-8,-7,-5,-2,1,0,-1
-9,-6,-4,-1,-2,-1,-3,0
2,2,13,0,-2,-1,-1,-2
-3,5,-8,10,4,2,-1,0
12,10,-2,-6,-3,-1,0,1
-7,-7,-8,9,5,-2,2,-2
24,18,40,-9,-3,-4,0,1
-34,-2,-3,7,-4,-1,-2,-3
-4,12,-36,-6,2,3,1,3
-15,-11,1,0,-1,-3,-3,-8
6,-15,-27,-9,-7,-6,-5,-2
9,24,4,-6,-2,-2,-2,3
6,-8,4,10,-1,-1,0,-3
0,3,4,-2,-1,-2,-3,-2
-13,-2,-1,4,5,1,-1,-5
6,9,19,0,-1,-2,2,2
10,-5,0,-4,-2,-2,-1,2
-20,9,-11,0,-4,2,0,2
-16,-12,11,2,-3,-1,-2,-3
-4,0,-13,-10,2,1,-1,-6
0,-27,18,-4,0,-3,-8,1
-1,-7,-39,3,3,0,8,-2
15,15,37,16,-1,2,3,3
-17,-35,-10,-11,-3,-2,-2,-1
5,50,-11,5,2,-4,-2,-2
16,2,5,-8,-2,0,-3,-2
-14,-22,18,0,2,-2,-1,3
17,-7,-11,5,0,-1,0,-2
-2,4,25,9,-3,0,-2,-3
-9,0,1,2,-5,-1,-1,3
-10,0,-25,-5,4,1,-3,-7
10,-1,22,-14,-1,-2,-1,6
8,1,36,7,1,1,-2,-2
-5,-24,-75,-11,-8,-2,-3,-3
-6,-10,2,-5,0,0,-7,0
-13,29,16,6,0,1,9,-1
0,-32,20,-4,-3,1,-1,1
-11,1,35,3,-5,-2,-2,-2
12,18,-26,-2,3,-3,-2,-2
-14,-16,-53,-7,-4,-3,-2,-5
-4,-5,1,0,-2,-1,4,1
11,33,45,0,8,0,-3,1
-3,-14,-47,-7,-6,-3,-7,-5
2,-2,17,-9,-8,-5,-2,1
-9,-8,-4,10,-2,-2,-1,-10
-6,-6,8,-8,5,3,4,1
20,18,43,7,-6,0,3,7
-8,-6,-16,3,4,3,-9,-2
-15,-17,-27,-14,-1,-1,3,-2
22,20,14,1,-4,-4,-3,-1
-16,-19,-5,-5,1,1,-4,-3
-27,-1,-10,1,-8,0,1,2
-10,11,45,7,3,-1,4,-3
12,14,-52,1,4,0,-1,-1
8,-13,-44,-13,-8,-1,3,3
-8,13,27,-4,0,-3,-6,-5
24,21,3,1,4,4,2,6
-24,-22,48,4,-5,-2,-5,-4
-15,0,-2,-1,2,-5,-3,-6
23,-9,6,-6,3,0,1,-1
-31,12,-4,1,-4,-2,-4,-7
18,-17,29,0,1,-1,6,5
-51,-5,18,10,-3,-1,-15,-4
10,11,13,2,1,0,7,2
20,0,-23,-14,-1,-2,0,7
15,-21,-5,-7,-4,-4,-5,2
4,13,26,18,-4,1,1,-8
9,12,24,4,3,0,3,3
9,-21,-37,-13,-11,-3,-5,2
13,-23,-18,-19,1,-5,-6,-10
-6,19,30,45,5,6,18,15
-49,-11,47,-14,-5,-7,-8,-10
-7,-13,-69,-9,-4,1,2,-3
-28,-4,41,-7,0,3,0,2
26,11,1,-16,-5,-9,-13,-14
-15,-20,26,6,-4,7,10,17
-12,5,-1,14,3,-1,-10,-2
-9,34,20,-12,-2,2,4,-5
6,-11,10,5,4,-4,-4,0
41,5,-33,-9,4,-2,-8,-10
-86,-11,34,19,1,-2,11,-4
24,11,-25,10,0,0,-3,-3
27,41,53,6,-2,10,13,25
12,-57,-78,-1,-2,-4,-14,-9
29,14,40,-5,5,-6,-15,-14
6,9,19,-2,2,6,17,23
9,-21,-28,13,0,-7,-8,-11
-40,8,2,5,-1,-1,13,4
33,2,-7,10,1,-3,-19,-8
-27,39,-17,-14,-4,-8,20,5
9,-6,28,13,5,2,-2,-2
54,-10,-29,-8,-14,-5,-7,-24
-25,15,34,-1,2,3,2,-6
8,-21,-51,-45,-10,-8,-5,-1
-16,-5,-27,38,10,4,4,0
20,38,33,3,-1,2,2,6
-16,-69,-7,-22,-5,-14,-16,-3
4,8,29,-5,13,11,7,-9
2,7,35,-34,-13,-5,-4,0
5,-33,-18,15,-8,-2,6,1
80,35,27,-7,4,5,-2,9
-55,-33,63,12,-4,-12,-17,-12
13,-10,-11,-13,0,1,4,9
22,23,4,7,0,-5,-14,-1
46,18,2,-8,-8,5,29,19
-26,-24,-22,-9,-5,-2,-17,-3
50,45,-55,24,16,2,-9,-18
-10,-6,67,-25,1,-4,-1,-1
46,4,1,9,-10,-6,1,3
15,-11,-50,34,0,-1,-8,-7
2,-3,-11,-17,-6,6,1,0
46,0,-18,-27,13,-12,-9,20
-93,5,-13,1,-12,6,20,-11
9,-5,-52,-27,-2,-7,-26,-16
-1,-21,49,-43,-13,-5,0,11
25,33,-2,71,2,9,11,1
-59,13,61,-23,5,8,-2,0
79,-26,-62,20,-12,1,8,20
-23,-25,-15,-27,1,0,-9,-41
-18,-3,52,-36,5,-15,-9,5
-8,-23,-30,-1,-2,-6,-12,-17
29,44,53,18,17,15,9,1
-66,15,-33,39,-7,4,40,48
27,-59,-16,-24,-18,0,0,-24
-76,57,26,24,21,2,-10,2
85,-69,-39,-22,-18,-12,-43,-23
-11,6,-9,9,8,-9,-30,-34
1,20,4,24,-2,0,75,44
18,-8,-3,-8,-26,6,49,54
-79,57,57,7,11,0,-17,-26
47,-76,-7,-2,-7,-8,-78,-24
-39,28,28,-32,10,5,-12,-19
37,-21,-16,2,1,9,31,32
21,18,81,67,2,8,49,13
-63,-49,-83,-30,-12,-18,24,7
22,32,0,-24,12,1,-55,-34
-76,-13,-1,17,17,0,-29,-9
54,-14,27,-37,-15,-8,-49,-32
32,50,17,62,24,4,18,-18
20,-82,-8,39,-24,17,25,45
31,31,-22,1,-1,-22,-37,-39
-23,75,52,-6,21,1,50,72
-47,-77,-36,-37,-21,-2,8,-16
-61,-34,21,-56,12,-4,-66,-41
-32,2,15,43,15,17,13,6
-18,55,40,-18,21,-16,-15,11
100,-3,46,11,-49,-3,66,27
-66,-38,-76,-8,-24,13,-19,-9
-35,23,24,-62,35,6,-101,-44
-77,-61,78,17,-20,-8,96,33
-115,71,-17,-35,12,-15,-3,0
127,-18,-8,-72,-8,-1,49,3
-63,44,78,80,-19,-9,-70,-72
31,-18,-54,-35,-7,-9,7,-13
68,40,103,65,4,56,53,51
-112,-54,-1,32,-5,-23,-46,-22
-2,32,-128,-108,-7,-17,38,36
34,1,39,1,-22,-11,-28,-16
5,-37,-63,-21,17,5,-40,-31
99,48,91,48,1,-2,15,28
107,-84,-103,1,-3,-14,-30,-39
-85,83,10,24,25,25,63,76
53,-19,77,26,-19,-6,-22,-10
-7,-21,-112,-41,-6,-14,9,-50
50,51,127,42,-4,6,40,48
28,32,45,-24,19,12,-60,-26
-5,-41,95,65,10,-7,47,16
14,48,-33,19,18,15,-35,-11
91,-21,-70,-128,-38,-16,42,2
126,-7,-41,110,22,25,-47,0
-116,127,-51,-63,-4,-6,-11,-62
86,-16,7,-19,-32,-44,9,73
-14,2,40,63,10,13,29,13
-127,-105,-38,6,-14,-9,-53,-40
127,-13,13,6,-7,-10,-58,-36
44,89,-6,-69,24,23,40,4
-88,-73,-25,102,-8,3,-56,-37
43,-1,-34,-32,-17,-23,21,1
73,6,-64,-107,-3,-17,27,75
-128,53,76,53,39,6,-88,-44
36,-43,-28,-91,-2,6,70,30
-62,-119,-97,-18,-24,-5,-86,-126
-26,26,12,-84,-28,-19,54,44
-69,56,48,95,15,27,41,43
-71,-42,-81,-89,-27,-22,-97,-59
45,116,94,58,9,10,83,57
16,-111,-23,3,-18,-9,-45,-46
-95,-5,-26,40,13,-1,-16,-25
94,-61,93,71,54,22,-69,8
75,12,-67,5,-22,-17,101,85
36,108,55,56,35,24,-69,7
34,-51,-37,-23,-25,-24,10,-17
10,84,55,-15,-4,-14,15,4
38,33,-11,-111,35,19,-74,-46
42,-89,-11,-32,-49,-36,85,47
-59,0,14,-11,-15,13,-18,-24
127,127,48,-6,15,8,-22,-3
-60,-13,-30,-40,-20,-13,108,94
62,-33,3,49,13,18,-50,-49
116,-18,53,-14,9,-14,-59,-19
-23,-66,-57,-106,-41,-4,50,8
-26,23,23,60,20,22,-43,-43
-1,19,36,4,32,-10,-52,-17
55,-57,22,-58,-26,-8,126,65
-26,31,-35,89,22,35,-65,-75
7,-40,-30,-105,-77,-30,-20,-13
15,-14,47,-9,25,15,13,-1
-85,42,37,-42,-7,-10,-81,-56
-22,26,-42,-23,-6,2,120,64
29,-15,25,-65,20,2,-128,-99
42,-47,15,89,-37,-28,68,49
5,2,2,-7,0,3,14,33
-16,92,-36,7,10,7,-19,-13
-57,4,39,109,5,-8,-14,13
25,88,-30,-90,40,6,-26,-4
65,7,42,78,17,29,-38,-33
-39,-22,-25,-70,-30,-53,55,36
55,-88,-25,3,40,15,-85,-51
-4,-49,-16,30,-16,1,57,3
19,0,-8,-65,0,9,28,11
53,-101,2,23,2,9,-82,10
-35,116,71,-44,16,-16,122,57
-87,65,-11,-93,24,14,-128,-67
56,-128,-28,79,-40,-23,80,55
49,60,113,65,8,-13,-44,-13
38,-111,-90,-17,-21,-6,-19,-32
-28,48,39,-44,-8,11,-5,7
-128,69,11,8,4,-21,-27,-41
33,66,56,1,20,37,64,40
30,45,-28,14,-8,-3,-85,-11
-64,-102,-59,18,12,-7,104,62
-14,64,-35,39,-5,11,-42,-26
-71,70,2,-10,21,-16,-38,-13
57,-24,37,-94,-18,15,-12,17
-40,-38,-59,68,-16,-10,-25,-45
-46,127,88,55,71,40,27,35
127,-128,-88,-46,-38,15,123,63
-53,86,-70,-37,-19,-17,-1,-13
-68,88,51,-29,2,-6,-45,-12
-70,25,-54,-82,-13,-8,-103,-61
-18,-85,64,-14,11,-21,67,43
53,-24,-59,49,-1,16,37,7
-15,-9,-3,-16,-8,-2,2,19
82,-41,-23,-12,0,-3,-4,-2
-11,87,3,7,-3,-10,-51,-35
-78,-11,18,15,-8,2,20,20
3,-21,8,3,-6,4,7,7
0,-68,24,-15,-14,-18,23,-18
-34,77,-15,12,9,5,-100,-19
25,-27,43,21,2,-1,121,31
10,41,6,43,18,19,-43,-24
16,-21,27,-1,-2,-3,28,22
-16,-53,-57,-3,-11,-5,-15,-17
-12,21,18,-20,2,-8,-36,-17
0,10,17,0,9,10,1,0
26,2,-37,-14,-12,-3,3,12
-5,-19,10,0,-13,-6,-4,-14
-18,6,16,19,6,4,-23,-16
24,-17,2,-7,-4,-6,7,8
11,22,-23,-7,1,-2,-21,-1
-11,-35,4,-9,-8,2,26,9
-5,-33,28,23,3,2,-1,-21
12,14,1,-12,1,-7,19,9
12,-20,-28,-14,-1,-6,-12,-1
-8,-5,16,5,0,2,-18,-16
4,-32,6,6,-5,-7,-27,-1
1,18,-5,-7,-7,3,22,7
-2,15,-11,4,1,2,5,-4
-3,12,7,7,0,-9,-11,-18
17,94,14,11,0,1,-14,32
-6,10,-4,-14,-2,-3,-30,-29
5,-12,-6,0,-5,-4,16,18
1,-31,8,2,-9,4,-5,-11
-4,3,6,9,6,1,-7,-10
-1,16,-2,-6,-3,-3,-3,5
2,-18,5,0,-2,-1,6,5
-4,-24,-16,2,-2,-5,1,-8
-8,-26,0,0,0,1,3,-5
9,-20,9,0,-2,3,7,8
7,-24,-6,-3,-2,3,-4,-1
-9,5,12,0,-1,-3,3,-14
-2,-7,5,3,-1,1,11,5
4,-13,-8,-3,2,1,-15,-8
-2,-9,-1,-4,3,3,-4,-8
-2,4,3,2,-5,-4,18,12
4,25,0,1,-1,-2,-4,-1
4,-5,-1,-1,2,0,-6,3
-2,-8,-8,-4,-4,-2,2,-8
-4,3,3,1,3,-1,4,0
0,-14,1,1,1,1,-6,-12
0,0,-2,-3,-2,-2,-5,0
0,5,2,0,0,-1,9,6
-3,-10,7,1,0,0,-2,-4
-3,-28,-28,-10,-2,-2,-2,1
-3,-14,0,-3,-2,-3,-3,-1
1,-20,4,-2,-4,-1,1,1
0,6,8,1,-4,-2,-1,-5
5,-3,19,5,3,1,1,2
-1,1,11,-1,-1,1,1,2
4,1,-68,-7,-1,-1,-2,-2
-5,12,41,3,1,2,1,-8
0,-21,-5,-3,-3,-1,1,1
4,-102,13,-3,-4,-3,-29,2
-9,-29,-1,3,-1,-4,32,-3
-2,0,15,1,-5,-1,-24,4
-4,21,-24,-1,3,-2,17,-11
7,84,-3,0,-5,-1,19,11
3,32,12,-1,-3,-2,-25,-2
-2,28,-21,-5,-2,-3,22,-4
-4,21,23,2,-1,-4,-22,-21
-7,8,-23,-1,-3,-2,19,7
0,12,-17,-3,-1,1,16,13
-1,5,-9,1,-1,0,-89,-1
0,12,16,-3,-2,-3,75,-6
-4,-8,-1,1,0,1,-4,-28
2,8,1,-5,0,0,-5,6
7,4,4,-1,1,2,3,-4
-17,-19,-15,1,0,-3,-31,1
6,16,0,-1,0,-2,-5,-2
1,-11,6,1,-3,-2,25,4
-1,-10,-7,0,2,-1,14,30
-4,-6,0,2,-1,-3,-10,-19
3,3,-9,-2,-9,-3,2,-5
6,6,30,0,2,1,-28,-24
-5,-19,-43,-8,-8,-5,20,7
3,-5,-1,2,-4,1,-10,16
-7,1,2,-1,3,-1,-14,-9
-8,8,45,1,-1,-3,-3,-2
-7,-27,-87,-10,2,-3,4,-15
6,-6,18,-2,-2,5,-1,31
-6,2,3,-2,-6,-1,-12,-47
-4,-5,2,1,1,-1,3,-13
0,4,36,2,1,1,15,6
-3,-3,-27,0,-3,0,-14,11
10,6,-10,-2,0,-1,4,15
-3,1,-2,0,-3,0,-5,11
-5,-1,19,1,-2,0,-1,-18
6,-2,-8,-2,2,-1,-4,5
1,8,34,4,4,0,3,29
-8,-10,-49,-15,-6,-2,-3,-12
10,-5,5,2,-3,-1,4,11
1,0,31,2,0,1,1,-4
-5,-13,-93,-7,-1,1,-1,5
-1,-1,15,3,2,-2,-7,6
-1,3,12,-2,-3,-3,9,-6
1,3,20,2,-1,0,-7,-5
-3,2,19,1,2,1,-2,-4
5,-4,-16,-1,0,-1,0,10
-3,-2,10,1,-3,1,3,-6
-1,-5,-6,0,-2,-1,-2,-6
0,-1,9,-2,-2,-1,-4,2
1,2,-5,1,0,-3,2,4
-1,4,30,2,4,2,2,-2
-1,-11,-46,-7,-5,-1,-7,0
-7,1,-14,-4,-3,-3,2,-7
0,-2,15,2,-4,0,-3,-1
-2,1,10,-1,-1,-1,-1,-5
2,2,-5,-1,0,1,-1,-4
